@    xaxis  label "t"
@    yaxis  label "Rg (nm)"

           0.00          0.4955
          50.00          0.6402
         100.00          0.6175
         150.00          0.7250
         200.00          0.7717
         250.00          0.7916
         300.00          0.7986
         350.00          0.7523
         400.00          0.7265
         450.00          0.6671
         500.00          0.7173
         550.00          0.7152
         600.00          0.7174
         650.00          0.7231
         700.00          0.7716
         750.00          0.7291
         800.00          0.7278
         850.00          0.7423
         900.00          0.7416
         950.00          0.6610
        1000.00          0.6916
        1050.00          0.6335
        1100.00          0.6317
        1150.00          0.5845
        1200.00          0.5728
        1250.00          0.5714
        1300.00          0.5690
        1350.00          0.5477
        1400.00          0.5666
        1450.00          0.6155
        1500.00          0.6824
        1550.00          0.7020
        1600.00          0.6637
        1650.00          0.6184
        1700.00          0.6753
        1750.00          0.6755
        1800.00          0.7268
        1850.00          0.7404
        1900.00          0.7293
        1950.00          0.7096
        2000.00          0.6670
        2050.00          0.7817
        2100.00          0.7449
        2150.00          0.7326
        2200.00          0.7493
        2250.00          0.7646
        2300.00          0.8168
        2350.00          0.7182
        2400.00          0.7518
        2450.00          0.7300
        2500.00          0.7170
        2550.00          0.7186
        2600.00          0.6860
        2650.00          0.7511
        2700.00          0.7677
        2750.00          0.7849
        2800.00          0.7109
        2850.00          0.7602
        2900.00          0.7479
        2950.00          0.7207
        3000.00          0.7400
        3050.00          0.6475
        3100.00          0.6219
        3150.00          0.6387
        3200.00          0.6835
        3250.00          0.7548
        3300.00          0.7422
        3350.00          0.6877
        3400.00          0.7289
        3450.00          0.7151
        3500.00          0.6441
        3550.00          0.6150
        3600.00          0.6050
        3650.00          0.5720
        3700.00          0.5283
        3750.00          0.4860
        3800.00          0.5323
        3850.00          0.5174
        3900.00          0.4712
        3950.00          0.4700
        4000.00          0.5282
        4050.00          0.5976
        4100.00          0.6167
        4150.00          0.6486
        4200.00          0.7134
        4250.00          0.7051
        4300.00          0.7664
        4350.00          0.8378
        4400.00          0.8283
        4450.00          0.7893
        4500.00          0.7500
        4550.00          0.8496
        4600.00          0.7893
        4650.00          0.8574
        4700.00          0.8829
        4750.00          0.8497
        4800.00          0.8689
        4850.00          0.8002
        4900.00          0.7823
        4950.00          0.8643
        5000.00          0.7886
        5000.00          0.7898
        5050.00          0.7749
        5100.00          0.7077
        5150.00          0.7506
        5200.00          0.7510
        5250.00          0.7635
        5300.00          0.7768
        5350.00          0.8467
        5400.00          0.7488
        5450.00          0.8133
        5500.00          0.8580
        5550.00          0.7899
        5600.00          0.7908
        5650.00          0.8294
        5700.00          0.7778
        5750.00          0.7488
        5800.00          0.6719
        5850.00          0.6702
        5900.00          0.6800
        5950.00          0.6078
        6000.00          0.6984
        6050.00          0.6703
        6100.00          0.6452
        6150.00          0.6931
        6200.00          0.6973
        6250.00          0.6793
        6300.00          0.7750
        6350.00          0.7542
        6400.00          0.7870
        6450.00          0.7489
        6500.00          0.7774
        6550.00          0.8099
        6600.00          0.8452
        6650.00          0.7735
        6700.00          0.7399
        6750.00          0.8033
        6800.00          0.7598
        6850.00          0.7952
        6900.00          0.7821
        6950.00          0.8222
        7000.00          0.8287
        7050.00          0.8535
        7100.00          0.8210
        7150.00          0.8237
        7200.00          0.8188
        7250.00          0.8228
        7300.00          0.7858
        7350.00          0.8618
        7400.00          0.8778
        7450.00          0.8795
        7500.00          0.8294
        7550.00          0.7577
        7600.00          0.7628
        7650.00          0.7677
        7700.00          0.8140
        7750.00          0.7469
        7800.00          0.7379
        7850.00          0.6898
        7900.00          0.6600
        7950.00          0.6737
        8000.00          0.7491
        8050.00          0.7665
        8100.00          0.7542
        8150.00          0.6874
        8200.00          0.6966
        8250.00          0.6589
        8300.00          0.6338
        8350.00          0.7010
        8400.00          0.7849
        8450.00          0.7874
        8500.00          0.7364
        8550.00          0.7556
        8600.00          0.7786
        8650.00          0.8978
        8700.00          0.8696
        8750.00          0.8496
        8800.00          0.8939
        8850.00          0.8330
        8900.00          0.8922
        8950.00          0.7739
        9000.00          0.8328
        9050.00          0.7454
        9100.00          0.7595
        9150.00          0.6666
        9200.00          0.6532
        9250.00          0.6461
        9300.00          0.7355
        9350.00          0.7615
        9400.00          0.7516
        9450.00          0.8442
        9500.00          0.8454
        9550.00          0.8267
        9600.00          0.8544
        9650.00          0.8030
        9700.00          0.7816
        9750.00          0.8200
        9800.00          0.8329
        9850.00          0.8102
        9900.00          0.8265
        9950.00          0.8016
       10000.00          0.7975
       10050.00          0.8812
       10100.00          0.8107
       10150.00          0.7866
       10200.00          0.8048
       10250.00          0.8475
       10300.00          0.8234
       10350.00          0.8224
       10400.00          0.8305
       10450.00          0.7273
       10500.00          0.7091
       10550.00          0.7148
       10600.00          0.7148
       10650.00          0.6415
       10700.00          0.6662
       10750.00          0.7008
       10800.00          0.7174
       10850.00          0.6183
       10900.00          0.6302
       10950.00          0.5712
       11000.00          0.5234
       11050.00          0.5364
       11100.00          0.5308
       11150.00          0.5220
       11200.00          0.5071
       11250.00          0.5234
       11300.00          0.5920
       11350.00          0.5367
       11400.00          0.5627
       11450.00          0.5699
       11500.00          0.5241
       11550.00          0.5894
       11600.00          0.6226
       11650.00          0.6243
       11700.00          0.6405
       11750.00          0.6884
       11800.00          0.6803
       11850.00          0.6496
       11900.00          0.7168
       11950.00          0.8140
       12000.00          0.7782
       12050.00          0.7999
       12100.00          0.7929
       12150.00          0.7784
       12200.00          0.7562
       12250.00          0.7634
       12300.00          0.7197
       12350.00          0.7047
       12400.00          0.6639
       12450.00          0.7017
       12500.00          0.6401
       12550.00          0.6907
       12600.00          0.7476
       12650.00          0.7603
       12700.00          0.8097
       12750.00          0.8016
       12800.00          0.7510
       12850.00          0.6990
       12900.00          0.6495
       12950.00          0.7111
       13000.00          0.7739
       13050.00          0.7103
       13100.00          0.6798
       13150.00          0.6957
       13200.00          0.6931
       13250.00          0.7379
       13300.00          0.7505
       13350.00          0.7573
       13400.00          0.7546
       13450.00          0.7902
       13500.00          0.7317
       13550.00          0.6838
       13600.00          0.7068
       13650.00          0.7408
       13700.00          0.6887
       13750.00          0.6929
       13800.00          0.6402
       13850.00          0.6847
       13900.00          0.7542
       13950.00          0.8395
       14000.00          0.7877
       14050.00          0.7997
       14100.00          0.7702
       14150.00          0.7426
       14200.00          0.7306
       14250.00          0.6804
       14300.00          0.6785
       14350.00          0.6888
       14400.00          0.7138
       14450.00          0.6939
       14500.00          0.6924
       14550.00          0.6605
       14600.00          0.6680
       14650.00          0.7165
       14700.00          0.7910
       14750.00          0.7764
       14800.00          0.7475
       14850.00          0.7393
       14900.00          0.6794
       14950.00          0.7194
       15000.00          0.6937
       15050.00          0.7116
       15100.00          0.7283
       15150.00          0.7313
       15200.00          0.6903
       15250.00          0.6610
       15300.00          0.6152
       15350.00          0.6629
       15400.00          0.6839
       15450.00          0.6682
       15500.00          0.7894
       15550.00          0.7216
       15600.00          0.7094
       15650.00          0.7286
       15700.00          0.7394
       15750.00          0.7071
       15800.00          0.6688
       15850.00          0.7275
       15900.00          0.7430
       15950.00          0.6929
       16000.00          0.6713
       16050.00          0.6386
       16100.00          0.6294
       16150.00          0.6012
       16200.00          0.6416
       16250.00          0.6464
       16300.00          0.6015
       16350.00          0.5999
       16400.00          0.6606
       16450.00          0.7204
       16500.00          0.7620
       16550.00          0.7611
       16600.00          0.7547
       16650.00          0.7672
       16700.00          0.7455
       16750.00          0.7305
       16800.00          0.6270
       16850.00          0.5991
       16900.00          0.5901
       16950.00          0.5777
       17000.00          0.6206
       17050.00          0.6546
       17100.00          0.6854
       17150.00          0.7960
       17200.00          0.7892
       17250.00          0.7897
       17300.00          0.7631
       17350.00          0.7461
       17400.00          0.7826
       17450.00          0.6949
       17500.00          0.6835
       17550.00          0.7125
       17600.00          0.6925
       17650.00          0.7141
       17700.00          0.7737
       17750.00          0.7868
       17800.00          0.7641
       17850.00          0.7243
       17900.00          0.7940
       17950.00          0.8293
       18000.00          0.7577
       18050.00          0.7227
       18100.00          0.7156
       18150.00          0.6888
       18200.00          0.6632
       18250.00          0.6510
       18300.00          0.6615
       18350.00          0.7392
       18400.00          0.7308
       18450.00          0.7103
       18500.00          0.7431
       18550.00          0.7110
       18600.00          0.7012
       18650.00          0.7497
       18700.00          0.8448
       18750.00          0.7445
       18800.00          0.7736
       18850.00          0.7538
       18900.00          0.7163
       18950.00          0.7268
       19000.00          0.6654
       19050.00          0.6043
       19100.00          0.5535
       19150.00          0.5526
       19200.00          0.5437
       19250.00          0.5433
       19300.00          0.5868
       19350.00          0.6488
       19400.00          0.6382
       19450.00          0.6711
       19500.00          0.6841
       19550.00          0.6027
       19600.00          0.6993
       19650.00          0.5838
       19700.00          0.5823
       19750.00          0.6032
       19800.00          0.5879
       19850.00          0.6442
       19900.00          0.7329
       19950.00          0.7833
       20000.00          0.7744
       20050.00          0.8638
       20100.00          0.9080
       20150.00          0.8464
       20200.00          0.8300
       20250.00          0.8812
       20300.00          0.9091
       20350.00          0.8829
       20400.00          0.8755
       20450.00          0.8784
       20500.00          0.8419
       20550.00          0.7492
       20600.00          0.7574
       20650.00          0.7135
       20700.00          0.7073
       20750.00          0.7107
       20800.00          0.7118
       20850.00          0.6900
       20900.00          0.7485
       20950.00          0.7653
       21000.00          0.7065
       21050.00          0.6916
       21100.00          0.6993
       21150.00          0.7936
       21200.00          0.7562
       21250.00          0.7317
       21300.00          0.7892
       21350.00          0.7361
       21400.00          0.7358
       21450.00          0.7526
       21500.00          0.7664
       21550.00          0.7522
       21600.00          0.7929
       21650.00          0.7891
       21700.00          0.8154
       21750.00          0.8854
       21800.00          0.8693
       21850.00          0.8992
       21900.00          0.8852
       21950.00          0.8849
       22000.00          0.8683
       22050.00          0.8432
       22100.00          0.8163
       22150.00          0.7614
       22200.00          0.7221
       22250.00          0.7206
       22300.00          0.6857
       22350.00          0.6227
       22400.00          0.6123
       22450.00          0.6445
       22500.00          0.7378
       22550.00          0.6888
       22600.00          0.7182
       22650.00          0.6754
       22700.00          0.6340
       22750.00          0.6769
       22800.00          0.6075
       22850.00          0.6562
       22900.00          0.6416
       22950.00          0.6307
       23000.00          0.6485
       23050.00          0.6158
       23100.00          0.6019
       23150.00          0.6971
       23200.00          0.7027
       23250.00          0.6901
       23300.00          0.6217
       23350.00          0.7050
       23400.00          0.7669
       23450.00          0.8011
       23500.00          0.8218
       23550.00          0.6931
       23600.00          0.7649
       23650.00          0.7952
       23700.00          0.7580
       23750.00          0.6665
       23800.00          0.7433
       23850.00          0.6862
       23900.00          0.7004
       23950.00          0.6512
       24000.00          0.7019
       24050.00          0.6987
       24100.00          0.7163
       24150.00          0.6958
       24200.00          0.7282
       24250.00          0.6713
       24300.00          0.7109
       24350.00          0.7640
       24400.00          0.7718
       24450.00          0.8637
       24500.00          0.8470
       24550.00          0.7900
       24600.00          0.7526
       24650.00          0.7429
       24700.00          0.6988
       24750.00          0.6581
       24800.00          0.5845
       24850.00          0.6804
       24900.00          0.7625
       24950.00          0.7626
       25000.00          0.7282
       25000.00          0.7770
       25050.00          0.7839
       25100.00          0.7010
       25150.00          0.7540
       25200.00          0.6790
       25250.00          0.7280
       25300.00          0.7147
       25350.00          0.6854
       25400.00          0.7164
       25450.00          0.7036
       25500.00          0.7934
       25550.00          0.8498
       25600.00          0.8111
       25650.00          0.7838
       25700.00          0.7755
       25750.00          0.7657
       25800.00          0.7696
       25850.00          0.7520
       25900.00          0.6383
       25950.00          0.7115
       26000.00          0.6853
       26050.00          0.7258
       26100.00          0.7976
       26150.00          0.8552
       26200.00          0.8177
       26250.00          0.7856
       26300.00          0.8101
       26350.00          0.6686
       26400.00          0.7382
       26450.00          0.8139
       26500.00          0.7482
       26550.00          0.7183
       26600.00          0.7159
       26650.00          0.7577
       26700.00          0.7653
       26750.00          0.7560
       26800.00          0.6686
       26850.00          0.5779
       26900.00          0.6092
       26950.00          0.6723
       27000.00          0.6864
       27050.00          0.6924
       27100.00          0.7405
       27150.00          0.7495
       27200.00          0.7583
       27250.00          0.7781
       27300.00          0.8563
       27350.00          0.9156
       27400.00          0.7984
       27450.00          0.8675
       27500.00          0.8119
       27550.00          0.7989
       27600.00          0.8138
       27650.00          0.7851
       27700.00          0.7529
       27750.00          0.7370
       27800.00          0.6973
       27850.00          0.7147
       27900.00          0.6983
       27950.00          0.7191
       28000.00          0.6851
       28050.00          0.7048
       28100.00          0.7361
       28150.00          0.7472
       28200.00          0.6761
       28250.00          0.7369
       28300.00          0.7089
       28350.00          0.7016
       28400.00          0.6452
       28450.00          0.6121
       28500.00          0.6115
       28550.00          0.6390
       28600.00          0.6276
       28650.00          0.5826
       28700.00          0.5489
       28750.00          0.5607
       28800.00          0.5598
       28850.00          0.5613
       28900.00          0.5809
       28950.00          0.6255
       29000.00          0.6330
       29050.00          0.7032
       29100.00          0.5797
       29150.00          0.6003
       29200.00          0.5636
       29250.00          0.5406
       29300.00          0.5396
       29350.00          0.6115
       29400.00          0.5939
       29450.00          0.5194
       29500.00          0.5226
       29550.00          0.4876
       29600.00          0.5385
       29650.00          0.5924
       29700.00          0.6506
       29750.00          0.6706
       29800.00          0.7163
       29850.00          0.7254
       29900.00          0.7501
       29950.00          0.7848
       30000.00          0.7658
       30050.00          0.8156
       30100.00          0.8607
       30150.00          0.8691
       30200.00          0.8539
       30250.00          0.8043
       30300.00          0.8022
       30350.00          0.7893
       30400.00          0.8633
       30450.00          0.9004
       30500.00          0.8692
       30550.00          0.8427
       30600.00          0.8661
       30650.00          0.8920
       30700.00          0.9353
       30750.00          0.8949
       30800.00          0.8853
       30850.00          0.8319
       30900.00          0.8563
       30950.00          0.8842
       31000.00          0.9355
       31050.00          0.9220
       31100.00          0.8991
       31150.00          0.8574
       31200.00          0.8607
       31250.00          0.8810
       31300.00          0.9341
       31350.00          0.8508
       31400.00          0.7984
       31450.00          0.7923
       31500.00          0.7650
       31550.00          0.8356
       31600.00          0.8412
       31650.00          0.8140
       31700.00          0.8251
       31750.00          0.7934
       31800.00          0.7784
       31850.00          0.8323
       31900.00          0.8498
       31950.00          0.8506
       32000.00          0.8890
       32050.00          0.9086
       32100.00          0.8881
       32150.00          0.7923
       32200.00          0.7905
       32250.00          0.7241
       32300.00          0.6598
       32350.00          0.6876
       32400.00          0.6394
       32450.00          0.6583
       32500.00          0.6652
       32550.00          0.7331
       32600.00          0.7091
       32650.00          0.6622
       32700.00          0.6108
       32750.00          0.6028
       32800.00          0.5723
       32850.00          0.5854
       32900.00          0.5483
       32950.00          0.5834
       33000.00          0.5887
       33050.00          0.6670
       33100.00          0.6740
       33150.00          0.6402
       33200.00          0.6803
       33250.00          0.7378
       33300.00          0.6615
       33350.00          0.7306
       33400.00          0.6899
       33450.00          0.7180
       33500.00          0.7372
       33550.00          0.8635
       33600.00          0.8794
       33650.00          0.8485
       33700.00          0.8635
       33750.00          0.8768
       33800.00          0.7888
       33850.00          0.8136
       33900.00          0.8234
       33950.00          0.8050
       34000.00          0.7618
       34050.00          0.7771
       34100.00          0.8198
       34150.00          0.7731
       34200.00          0.6931
       34250.00          0.7258
       34300.00          0.7954
       34350.00          0.8100
       34400.00          0.8346
       34450.00          0.8210
       34500.00          0.8300
       34550.00          0.8002
       34600.00          0.8396
       34650.00          0.8571
       34700.00          0.8979
       34750.00          0.8112
       34800.00          0.7629
       34850.00          0.7405
       34900.00          0.7386
       34950.00          0.7540
       35000.00          0.6712
       35050.00          0.7042
       35100.00          0.6997
       35150.00          0.7368
       35200.00          0.7532
       35250.00          0.8083
       35300.00          0.6958
       35350.00          0.8344
       35400.00          0.8250
       35450.00          0.8363
       35500.00          0.7993
       35550.00          0.8001
       35600.00          0.8245
       35650.00          0.8427
       35700.00          0.8167
       35750.00          0.7850
       35800.00          0.7509
       35850.00          0.7392
       35900.00          0.7983
       35950.00          0.7660
       36000.00          0.6236
       36050.00          0.7143
       36100.00          0.7787
       36150.00          0.7901
       36200.00          0.7804
       36250.00          0.7647
       36300.00          0.8640
       36350.00          0.8669
       36400.00          0.9227
       36450.00          0.8460
       36500.00          0.8775
       36550.00          0.8516
       36600.00          0.8858
       36650.00          0.8648
       36700.00          0.8117
       36750.00          0.7600
       36800.00          0.8171
       36850.00          0.7340
       36900.00          0.7307
       36950.00          0.8422
       37000.00          0.7748
       37050.00          0.7858
       37100.00          0.7346
       37150.00          0.8133
       37200.00          0.8706
       37250.00          0.8154
       37300.00          0.8293
       37350.00          0.8328
       37400.00          0.8050
       37450.00          0.8736
       37500.00          0.8439
       37550.00          0.7698
       37600.00          0.7812
       37650.00          0.7202
       37700.00          0.6517
       37750.00          0.5979
       37800.00          0.5896
       37850.00          0.5388
       37900.00          0.5385
       37950.00          0.6473
       38000.00          0.6681
       38050.00          0.6392
       38100.00          0.6582
       38150.00          0.6441
       38200.00          0.6234
       38250.00          0.7244
       38300.00          0.7105
       38350.00          0.7184
       38400.00          0.6665
       38450.00          0.7317
       38500.00          0.6385
       38550.00          0.5933
       38600.00          0.5838
       38650.00          0.5172
       38700.00          0.5077
       38750.00          0.5273
       38800.00          0.6204
       38850.00          0.5972
       38900.00          0.6090
       38950.00          0.6312
       39000.00          0.5466
       39050.00          0.5781
       39100.00          0.5732
       39150.00          0.5651
       39200.00          0.5142
       39250.00          0.5113
       39300.00          0.5051
       39350.00          0.6148
       39400.00          0.5806
       39450.00          0.5864
       39500.00          0.5874
       39550.00          0.6365
       39600.00          0.6213
       39650.00          0.6269
       39700.00          0.6624
       39750.00          0.6959
       39800.00          0.7256
       39850.00          0.7543
       39900.00          0.8017
       39950.00          0.7780
       40000.00          0.7361
       40050.00          0.7142
       40100.00          0.7649
       40150.00          0.7475
       40200.00          0.6741
       40250.00          0.6645
       40300.00          0.8172
       40350.00          0.8022
       40400.00          0.7911
       40450.00          0.6981
       40500.00          0.7075
       40550.00          0.7167
       40600.00          0.6677
       40650.00          0.6164
       40700.00          0.6758
       40750.00          0.7043
       40800.00          0.7086
       40850.00          0.7302
       40900.00          0.7973
       40950.00          0.7559
       41000.00          0.7220
       41050.00          0.7139
       41100.00          0.7108
       41150.00          0.7173
       41200.00          0.7701
       41250.00          0.7033
       41300.00          0.6602
       41350.00          0.6237
       41400.00          0.5912
       41450.00          0.5952
       41500.00          0.6232
       41550.00          0.7717
       41600.00          0.8151
       41650.00          0.7682
       41700.00          0.7664
       41750.00          0.6878
       41800.00          0.7950
       41850.00          0.7465
       41900.00          0.7164
       41950.00          0.7450
       42000.00          0.7349
       42050.00          0.7235
       42100.00          0.6962
       42150.00          0.6879
       42200.00          0.7618
       42250.00          0.7671
       42300.00          0.6885
       42350.00          0.7759
       42400.00          0.7791
       42450.00          0.7957
       42500.00          0.8003
       42550.00          0.8139
       42600.00          0.7476
       42650.00          0.7425
       42700.00          0.7089
       42750.00          0.7642
       42800.00          0.7369
       42850.00          0.7279
       42900.00          0.7904
       42950.00          0.7446
       43000.00          0.8092
       43050.00          0.8277
       43100.00          0.8481
       43150.00          0.7741
       43200.00          0.7811
       43250.00          0.7825
       43300.00          0.7321
       43350.00          0.8084
       43400.00          0.7995
       43450.00          0.7958
       43500.00          0.8129
       43550.00          0.7338
       43600.00          0.6822
       43650.00          0.6731
       43700.00          0.7296
       43750.00          0.7174
       43800.00          0.6274
       43850.00          0.6862
       43900.00          0.6336
       43950.00          0.6370
       44000.00          0.6257
       44050.00          0.6616
       44100.00          0.5694
       44150.00          0.6657
       44200.00          0.7187
       44250.00          0.7393
       44300.00          0.6870
       44350.00          0.7105
       44400.00          0.6937
       44450.00          0.7307
       44500.00          0.7147
       44550.00          0.6317
       44600.00          0.7185
       44650.00          0.6599
       44700.00          0.7038
       44750.00          0.5772
       44800.00          0.5568
       44850.00          0.5510
       44900.00          0.5658
       44950.00          0.5647
       45000.00          0.5638
       45000.00          0.5313
       45050.00          0.5956
       45100.00          0.6717
       45150.00          0.6362
       45200.00          0.5675
       45250.00          0.6269
       45300.00          0.6216
       45350.00          0.5814
       45400.00          0.5985
       45450.00          0.5995
       45500.00          0.6437
       45550.00          0.6835
       45600.00          0.6474
       45650.00          0.6589
       45700.00          0.6545
       45750.00          0.6187
       45800.00          0.6368
       45850.00          0.6297
       45900.00          0.6604
       45950.00          0.7128
       46000.00          0.6508
       46050.00          0.6522
       46100.00          0.6401
       46150.00          0.6462
       46200.00          0.7000
       46250.00          0.6909
       46300.00          0.7165
       46350.00          0.6196
       46400.00          0.6267
       46450.00          0.6246
       46500.00          0.6398
       46550.00          0.6373
       46600.00          0.6512
       46650.00          0.6940
       46700.00          0.7193
       46750.00          0.6968
       46800.00          0.8183
       46850.00          0.8009
       46900.00          0.7778
       46950.00          0.8152
       47000.00          0.7687
       47050.00          0.7549
       47100.00          0.8534
       47150.00          0.8911
       47200.00          0.8665
       47250.00          0.8588
       47300.00          0.9265
       47350.00          0.8615
       47400.00          0.8774
       47450.00          0.8679
       47500.00          0.8371
       47550.00          0.7811
       47600.00          0.7242
       47650.00          0.7261
       47700.00          0.7401
       47750.00          0.7403
       47800.00          0.7925
       47850.00          0.8266
       47900.00          0.8076
       47950.00          0.7817
       48000.00          0.7250
       48050.00          0.7087
       48100.00          0.7680
       48150.00          0.7641
       48200.00          0.7811
       48250.00          0.9029
       48300.00          0.8566
       48350.00          0.8685
       48400.00          0.8688
       48450.00          0.8917
       48500.00          0.8287
       48550.00          0.8359
       48600.00          0.7872
       48650.00          0.7078
       48700.00          0.7730
       48750.00          0.8238
       48800.00          0.7819
       48850.00          0.7982
       48900.00          0.7987
       48950.00          0.9182
       49000.00          0.9307
       49050.00          0.8372
       49100.00          0.8763
       49150.00          0.8443
       49200.00          0.8016
       49250.00          0.7685
       49300.00          0.7125
       49350.00          0.7557
       49400.00          0.7204
       49450.00          0.7876
       49500.00          0.8095
       49550.00          0.8414
       49600.00          0.8166
       49650.00          0.8268
       49700.00          0.7898
       49750.00          0.8359
       49800.00          0.8702
       49850.00          0.8519
       49900.00          0.7963
       49950.00          0.7729
       50000.00          0.7316
       50050.00          0.7303
       50100.00          0.7869
       50150.00          0.7442
       50200.00          0.7941
       50250.00          0.8445
       50300.00          0.8756
       50350.00          0.8167
       50400.00          0.7844
       50450.00          0.8315
       50500.00          0.7991
       50550.00          0.7811
       50600.00          0.7613
       50650.00          0.8255
       50700.00          0.7796
       50750.00          0.7045
       50800.00          0.7615
       50850.00          0.8281
       50900.00          0.8230
       50950.00          0.7737
       51000.00          0.8708
       51050.00          0.8257
       51100.00          0.8312
       51150.00          0.8161
       51200.00          0.7420
       51250.00          0.7345
       51300.00          0.7175
       51350.00          0.6656
       51400.00          0.7474
       51450.00          0.7668
       51500.00          0.7236
       51550.00          0.8103
       51600.00          0.8516
       51650.00          0.8310
       51700.00          0.8351
       51750.00          0.7771
       51800.00          0.7923
       51850.00          0.7312
       51900.00          0.7806
       51950.00          0.8567
       52000.00          0.7966
       52050.00          0.8230
       52100.00          0.7828
       52150.00          0.8088
       52200.00          0.7760
       52250.00          0.8295
       52300.00          0.8063
       52350.00          0.8477
       52400.00          0.8685
       52450.00          0.7613
       52500.00          0.8160
       52550.00          0.7529
       52600.00          0.8033
       52650.00          0.8277
       52700.00          0.8155
       52750.00          0.8648
       52800.00          0.9157
       52850.00          0.8479
       52900.00          0.9042
       52950.00          0.8683
       53000.00          0.8310
       53050.00          0.7993
       53100.00          0.7949
       53150.00          0.8102
       53200.00          0.6916
       53250.00          0.7007
       53300.00          0.6744
       53350.00          0.6442
       53400.00          0.7022
       53450.00          0.6766
       53500.00          0.7066
       53550.00          0.7120
       53600.00          0.7783
       53650.00          0.8135
       53700.00          0.7749
       53750.00          0.7205
       53800.00          0.7469
       53850.00          0.8459
       53900.00          0.7912
       53950.00          0.7943
       54000.00          0.8298
       54050.00          0.8769
       54100.00          0.7713
       54150.00          0.7902
       54200.00          0.7883
       54250.00          0.7255
       54300.00          0.8231
       54350.00          0.8201
       54400.00          0.8227
       54450.00          0.8218
       54500.00          0.8286
       54550.00          0.8312
       54600.00          0.8234
       54650.00          0.7539
       54700.00          0.7638
       54750.00          0.6864
       54800.00          0.6411
       54850.00          0.6706
       54900.00          0.7104
       54950.00          0.6854
       55000.00          0.6717
       55050.00          0.6708
       55100.00          0.7526
       55150.00          0.7100
       55200.00          0.8043
       55250.00          0.7787
       55300.00          0.8540
       55350.00          0.8371
       55400.00          0.8577
       55450.00          0.7545
       55500.00          0.7844
       55550.00          0.8197
       55600.00          0.7771
       55650.00          0.6863
       55700.00          0.6911
       55750.00          0.6717
       55800.00          0.7396
       55850.00          0.7348
       55900.00          0.7968
       55950.00          0.7010
       56000.00          0.7053
       56050.00          0.6838
       56100.00          0.6994
       56150.00          0.6593
       56200.00          0.6410
       56250.00          0.6310
       56300.00          0.6139
       56350.00          0.6987
       56400.00          0.7288
       56450.00          0.7841
       56500.00          0.8529
       56550.00          0.7879
       56600.00          0.8073
       56650.00          0.7909
       56700.00          0.7107
       56750.00          0.6697
       56800.00          0.6710
       56850.00          0.6353
       56900.00          0.6401
       56950.00          0.6214
       57000.00          0.6711
       57050.00          0.7094
       57100.00          0.6845
       57150.00          0.7595
       57200.00          0.7447
       57250.00          0.8212
       57300.00          0.7691
       57350.00          0.7344
       57400.00          0.7721
       57450.00          0.6803
       57500.00          0.7326
       57550.00          0.7255
       57600.00          0.6727
       57650.00          0.6644
       57700.00          0.7522
       57750.00          0.7166
       57800.00          0.7314
       57850.00          0.8636
       57900.00          0.8986
       57950.00          0.8800
       58000.00          0.7269
       58050.00          0.8200
       58100.00          0.8194
       58150.00          0.8223
       58200.00          0.8580
       58250.00          0.8288
       58300.00          0.8292
       58350.00          0.8761
       58400.00          0.8675
       58450.00          0.8164
       58500.00          0.7550
       58550.00          0.7246
       58600.00          0.7644
       58650.00          0.7928
       58700.00          0.7319
       58750.00          0.7062
       58800.00          0.6891
       58850.00          0.7910
       58900.00          0.7732
       58950.00          0.8064
       59000.00          0.8543
       59050.00          0.8847
       59100.00          0.8749
       59150.00          0.8992
       59200.00          0.9344
       59250.00          0.9021
       59300.00          0.8580
       59350.00          0.8744
       59400.00          0.8227
       59450.00          0.8031
       59500.00          0.7242
       59550.00          0.7043
       59600.00          0.6903
       59650.00          0.6152
       59700.00          0.6782
       59750.00          0.6878
       59800.00          0.7373
       59850.00          0.7335
       59900.00          0.7274
       59950.00          0.7466
       60000.00          0.8096
       60050.00          0.7655
       60100.00          0.7325
       60150.00          0.7165
       60200.00          0.7240
       60250.00          0.7735
       60300.00          0.7478
       60350.00          0.7109
       60400.00          0.7796
       60450.00          0.8569
       60500.00          0.8328
       60550.00          0.8104
       60600.00          0.8145
       60650.00          0.7587
       60700.00          0.7747
       60750.00          0.7462
       60800.00          0.7850
       60850.00          0.7103
       60900.00          0.6752
       60950.00          0.7587
       61000.00          0.7672
       61050.00          0.7961
       61100.00          0.8471
       61150.00          0.8793
       61200.00          0.8751
       61250.00          0.8447
       61300.00          0.8092
       61350.00          0.7304
       61400.00          0.7194
       61450.00          0.7598
       61500.00          0.7752
       61550.00          0.8153
       61600.00          0.7663
       61650.00          0.7536
       61700.00          0.7047
       61750.00          0.7730
       61800.00          0.7909
       61850.00          0.8163
       61900.00          0.8224
       61950.00          0.8043
       62000.00          0.8208
       62050.00          0.8176
       62100.00          0.8193
       62150.00          0.7245
       62200.00          0.7500
       62250.00          0.7196
       62300.00          0.7135
       62350.00          0.7304
       62400.00          0.7672
       62450.00          0.7327
       62500.00          0.7900
       62550.00          0.7691
       62600.00          0.7782
       62650.00          0.7483
       62700.00          0.6929
       62750.00          0.7244
       62800.00          0.7078
       62850.00          0.6398
       62900.00          0.6219
       62950.00          0.6154
       63000.00          0.5562
       63050.00          0.5839
       63100.00          0.6308
       63150.00          0.6438
       63200.00          0.6409
       63250.00          0.6889
       63300.00          0.6500
       63350.00          0.6285
       63400.00          0.7956
       63450.00          0.7310
       63500.00          0.7197
       63550.00          0.7431
       63600.00          0.7380
       63650.00          0.6983
       63700.00          0.6512
       63750.00          0.6622
       63800.00          0.6696
       63850.00          0.6605
       63900.00          0.6337
       63950.00          0.6437
       64000.00          0.6180
       64050.00          0.6043
       64100.00          0.6135
       64150.00          0.6108
       64200.00          0.6404
       64250.00          0.6616
       64300.00          0.6822
       64350.00          0.7389
       64400.00          0.7269
       64450.00          0.7487
       64500.00          0.8291
       64550.00          0.7773
       64600.00          0.7976
       64650.00          0.8190
       64700.00          0.8488
       64750.00          0.8024
       64800.00          0.8672
       64850.00          0.8391
       64900.00          0.8811
       64950.00          0.8467
       64950.00          0.7725
       65000.00          0.8655
       65050.00          0.8245
       65100.00          0.8315
       65150.00          0.7833
       65200.00          0.8560
       65250.00          0.8520
       65300.00          0.8217
       65350.00          0.7179
       65400.00          0.7552
       65450.00          0.8400
       65500.00          0.8264
       65550.00          0.7785
       65600.00          0.8125
       65650.00          0.8269
       65700.00          0.8316
       65750.00          0.8669
       65800.00          0.7764
       65850.00          0.8216
       65900.00          0.7994
       65950.00          0.8099
       66000.00          0.7681
       66050.00          0.7404
       66100.00          0.8037
       66150.00          0.8165
       66200.00          0.8028
       66250.00          0.8229
       66300.00          0.8035
       66350.00          0.8464
       66400.00          0.7898
       66450.00          0.8261
       66500.00          0.8228
       66550.00          0.8066
       66600.00          0.8148
       66650.00          0.8285
       66700.00          0.8285
       66750.00          0.8883
       66800.00          0.8009
       66850.00          0.7996
       66900.00          0.7496
       66950.00          0.7571
       67000.00          0.7824
       67050.00          0.8643
       67100.00          0.9028
       67150.00          0.8777
       67200.00          0.8918
       67250.00          0.9286
       67300.00          0.8860
       67350.00          0.7850
       67400.00          0.7539
       67450.00          0.8720
       67500.00          0.8123
       67550.00          0.7815
       67600.00          0.8097
       67650.00          0.8823
       67700.00          0.8797
       67750.00          0.8727
       67800.00          0.8259
       67850.00          0.8359
       67900.00          0.8787
       67950.00          0.8500
       68000.00          0.8312
       68050.00          0.8126
       68100.00          0.7618
       68150.00          0.7606
       68200.00          0.7141
       68250.00          0.7693
       68300.00          0.8016
       68350.00          0.7354
       68400.00          0.7720
       68450.00          0.7652
       68500.00          0.6629
       68550.00          0.7079
       68600.00          0.7779
       68650.00          0.8434
       68700.00          0.8514
       68750.00          0.7885
       68800.00          0.8453
       68850.00          0.8107
       68900.00          0.7810
       68950.00          0.7885
       69000.00          0.7580
       69050.00          0.8056
       69100.00          0.7985
       69150.00          0.8544
       69200.00          0.8874
       69250.00          0.8348
       69300.00          0.8554
       69350.00          0.8999
       69400.00          0.8887
       69450.00          0.8465
       69500.00          0.7879
       69550.00          0.7925
       69600.00          0.7573
       69650.00          0.8175
       69700.00          0.8016
       69750.00          0.7615
       69800.00          0.6680
       69850.00          0.6983
       69900.00          0.6420
       69950.00          0.6869
       70000.00          0.7257
       70050.00          0.7458
       70100.00          0.7737
       70150.00          0.7820
       70200.00          0.8325
       70250.00          0.7749
       70300.00          0.8494
       70350.00          0.8292
       70400.00          0.8096
       70450.00          0.8517
       70500.00          0.8452
       70550.00          0.8007
       70600.00          0.7854
       70650.00          0.8258
       70700.00          0.8307
       70750.00          0.8257
       70800.00          0.7810
       70850.00          0.7326
       70900.00          0.8602
       70950.00          0.8546
       71000.00          0.7936
       71050.00          0.7696
       71100.00          0.7090
       71150.00          0.7501
       71200.00          0.8207
       71250.00          0.8378
       71300.00          0.8743
       71350.00          0.8402
       71400.00          0.8166
       71450.00          0.7516
       71500.00          0.7554
       71550.00          0.7995
       71600.00          0.7614
       71650.00          0.8102
       71700.00          0.9087
       71750.00          0.9020
       71800.00          0.8979
       71850.00          0.8922
       71900.00          0.8561
       71950.00          0.8193
       72000.00          0.7819
       72050.00          0.8551
       72100.00          0.8772
       72150.00          0.9164
       72200.00          0.8222
       72250.00          0.8870
       72300.00          0.8452
       72350.00          0.8976
       72400.00          0.8887
       72450.00          0.8376
       72500.00          0.8465
       72550.00          0.8284
       72600.00          0.7922
       72650.00          0.7723
       72700.00          0.8172
       72750.00          0.7615
       72800.00          0.6413
       72850.00          0.6311
       72900.00          0.6830
       72950.00          0.7320
       73000.00          0.7697
       73050.00          0.6992
       73100.00          0.7194
       73150.00          0.7698
       73200.00          0.7515
       73250.00          0.6982
       73300.00          0.7172
       73350.00          0.7552
       73400.00          0.7655
       73450.00          0.8671
       73500.00          0.8444
       73550.00          0.8133
       73600.00          0.7750
       73650.00          0.7126
       73700.00          0.7077
       73750.00          0.7069
       73800.00          0.6757
       73850.00          0.6988
       73900.00          0.6909
       73950.00          0.7560
       74000.00          0.7616
       74050.00          0.6905
       74100.00          0.6357
       74150.00          0.6246
       74200.00          0.6434
       74250.00          0.6370
       74300.00          0.6346
       74350.00          0.6553
       74400.00          0.6950
       74450.00          0.6893
       74500.00          0.7388
       74550.00          0.7210
       74600.00          0.7555
       74650.00          0.7055
       74700.00          0.7141
       74750.00          0.7108
       74800.00          0.6552
       74850.00          0.6772
       74900.00          0.6591
       74950.00          0.6508
       75000.00          0.6582
       75050.00          0.6622
       75100.00          0.7650
       75150.00          0.7459
       75200.00          0.7756
       75250.00          0.8097
       75300.00          0.8287
       75350.00          0.8408
       75400.00          0.7867
       75450.00          0.8653
       75500.00          0.8741
       75550.00          0.8985
       75600.00          0.8361
       75650.00          0.7606
       75700.00          0.8194
       75750.00          0.7533
       75800.00          0.8052
       75850.00          0.7604
       75900.00          0.7571
       75950.00          0.7672
       76000.00          0.8450
       76050.00          0.7645
       76100.00          0.7944
       76150.00          0.7658
       76200.00          0.6535
       76250.00          0.6508
       76300.00          0.6317
       76350.00          0.6458
       76400.00          0.6217
       76450.00          0.5803
       76500.00          0.6000
       76550.00          0.5775
       76600.00          0.5623
       76650.00          0.5342
       76700.00          0.4934
       76750.00          0.5433
       76800.00          0.5143
       76850.00          0.5086
       76900.00          0.5168
       76950.00          0.4774
       77000.00          0.5016
       77050.00          0.5105
       77100.00          0.5230
       77150.00          0.5702
       77200.00          0.5791
       77250.00          0.5348
       77300.00          0.5135
       77350.00          0.5124
       77400.00          0.5431
       77450.00          0.5398
       77500.00          0.5223
       77550.00          0.5755
       77600.00          0.5725
       77650.00          0.5811
       77700.00          0.5569
       77750.00          0.5657
       77800.00          0.5786
       77850.00          0.6379
       77900.00          0.6077
       77950.00          0.6389
       78000.00          0.6184
       78050.00          0.5592
       78100.00          0.6783
       78150.00          0.6402
       78200.00          0.6369
       78250.00          0.5982
       78300.00          0.5507
       78350.00          0.5393
       78400.00          0.5738
       78450.00          0.5719
       78500.00          0.6242
       78550.00          0.6404
       78600.00          0.6554
       78650.00          0.6788
       78700.00          0.6500
       78750.00          0.6172
       78800.00          0.6396
       78850.00          0.6361
       78900.00          0.6666
       78950.00          0.6679
       79000.00          0.6347
       79050.00          0.6848
       79100.00          0.6732
       79150.00          0.6471
       79200.00          0.6540
       79250.00          0.5956
       79300.00          0.6226
       79350.00          0.5701
       79400.00          0.6378
       79450.00          0.6096
       79500.00          0.6597
       79550.00          0.6351
       79600.00          0.5922
       79650.00          0.6134
       79700.00          0.5903
       79750.00          0.5280
       79800.00          0.5537
       79850.00          0.5969
       79900.00          0.5726
       79950.00          0.5987
       80000.00          0.6051
       80050.00          0.6116
       80100.00          0.6532
       80150.00          0.5795
       80200.00          0.6124
       80250.00          0.6443
       80300.00          0.6294
       80350.00          0.6829
       80400.00          0.6652
       80450.00          0.6405
       80500.00          0.6291
       80550.00          0.6192
       80600.00          0.6605
       80650.00          0.6076
       80700.00          0.5615
       80750.00          0.6010
       80800.00          0.5830
       80850.00          0.6062
       80900.00          0.6458
       80950.00          0.6049
       81000.00          0.5746
       81050.00          0.5841
       81100.00          0.6402
       81150.00          0.5588
       81200.00          0.5062
       81250.00          0.4973
       81300.00          0.5229
       81350.00          0.5272
       81400.00          0.5427
       81450.00          0.5495
       81500.00          0.5438
       81550.00          0.5362
       81600.00          0.4904
       81650.00          0.5502
       81700.00          0.5003
       81750.00          0.5165
       81800.00          0.4979
       81850.00          0.5391
       81900.00          0.5145
       81950.00          0.5354
       82000.00          0.5303
       82050.00          0.5281
       82100.00          0.5337
       82150.00          0.5769
       82200.00          0.5819
       82250.00          0.5926
       82300.00          0.5939
       82350.00          0.5564
       82400.00          0.4961
       82450.00          0.5104
       82500.00          0.4684
       82550.00          0.5256
       82600.00          0.5448
       82650.00          0.5322
       82700.00          0.5684
       82750.00          0.4962
       82800.00          0.5008
       82850.00          0.4846
       82900.00          0.4770
       82950.00          0.4950
       83000.00          0.4851
       83050.00          0.5274
       83100.00          0.5395
       83150.00          0.5048
       83200.00          0.5100
       83250.00          0.5318
       83300.00          0.5989
       83350.00          0.5560
       83400.00          0.5115
       83450.00          0.5031
       83500.00          0.4973
       83550.00          0.5216
       83600.00          0.5166
       83650.00          0.4949
       83700.00          0.4828
       83750.00          0.4800
       83800.00          0.4914
       83850.00          0.4969
       83900.00          0.5269
       83950.00          0.4961
       84000.00          0.5277
       84050.00          0.5006
       84100.00          0.4954
       84150.00          0.5134
       84200.00          0.4940
       84250.00          0.4746
       84300.00          0.5254
       84350.00          0.5182
       84400.00          0.5357
       84450.00          0.5103
       84500.00          0.5062
       84550.00          0.4798
       84600.00          0.5104
       84650.00          0.5317
       84700.00          0.5065
       84750.00          0.4994
       84800.00          0.4856
       84850.00          0.5127
       84900.00          0.4906
       84950.00          0.4915
       84950.00          0.5003
       85000.00          0.4703
       85050.00          0.4897
       85100.00          0.4817
       85150.00          0.4904
       85200.00          0.5056
       85250.00          0.5053
       85300.00          0.4908
       85350.00          0.5031
       85400.00          0.4885
       85450.00          0.4769
       85500.00          0.5216
       85550.00          0.5223
       85600.00          0.5233
       85650.00          0.4785
       85700.00          0.5016
       85750.00          0.4753
       85800.00          0.4829
       85850.00          0.4848
       85900.00          0.4790
       85950.00          0.4814
       86000.00          0.4983
       86050.00          0.4785
       86100.00          0.4651
       86150.00          0.4727
       86200.00          0.4840
       86250.00          0.4861
       86300.00          0.4892
       86350.00          0.5146
       86400.00          0.5108
       86450.00          0.5152
       86500.00          0.4762
       86550.00          0.4877
       86600.00          0.4669
       86650.00          0.5040
       86700.00          0.4970
       86750.00          0.4734
       86800.00          0.4902
       86850.00          0.4955
       86900.00          0.4681
       86950.00          0.4789
       87000.00          0.4783
       87050.00          0.4995
       87100.00          0.5129
       87150.00          0.5070
       87200.00          0.5061
       87250.00          0.5083
       87300.00          0.4870
       87350.00          0.5017
       87400.00          0.4815
       87450.00          0.5035
       87500.00          0.5048
       87550.00          0.4739
       87600.00          0.4758
       87650.00          0.4855
       87700.00          0.4880
       87750.00          0.4759
       87800.00          0.4976
       87850.00          0.5017
       87900.00          0.4937
       87950.00          0.4929
       88000.00          0.4928
       88050.00          0.4975
       88100.00          0.5027
       88150.00          0.4869
       88200.00          0.4826
       88250.00          0.4764
       88300.00          0.5058
       88350.00          0.5098
       88400.00          0.5028
       88450.00          0.5040
       88500.00          0.4855
       88550.00          0.4987
       88600.00          0.4879
       88650.00          0.4596
       88700.00          0.5156
       88750.00          0.5036
       88800.00          0.4902
       88850.00          0.5082
       88900.00          0.4836
       88950.00          0.4822
       89000.00          0.5040
       89050.00          0.5072
       89100.00          0.5164
       89150.00          0.5198
       89200.00          0.5072
       89250.00          0.5017
       89300.00          0.4969
       89350.00          0.4728
       89400.00          0.4789
       89450.00          0.4850
       89500.00          0.4943
       89550.00          0.4663
       89600.00          0.4687
       89650.00          0.5012
       89700.00          0.4827
       89750.00          0.5111
       89800.00          0.4775
       89850.00          0.4848
       89900.00          0.5043
       89950.00          0.4934
       90000.00          0.4749
       90050.00          0.4910
       90100.00          0.4722
       90150.00          0.4814
       90200.00          0.4787
       90250.00          0.4812
       90300.00          0.4824
       90350.00          0.4935
       90400.00          0.4694
       90450.00          0.4767
       90500.00          0.4955
       90550.00          0.4854
       90600.00          0.4869
       90650.00          0.5038
       90700.00          0.4827
       90750.00          0.4939
       90800.00          0.4754
       90850.00          0.4765
       90900.00          0.4655
       90950.00          0.4989
       91000.00          0.5016
       91050.00          0.4924
       91100.00          0.4781
       91150.00          0.4735
       91200.00          0.4738
       91250.00          0.4863
       91300.00          0.4980
       91350.00          0.5027
       91400.00          0.5084
       91450.00          0.4842
       91500.00          0.4802
       91550.00          0.4872
       91600.00          0.4862
       91650.00          0.4834
       91700.00          0.4798
       91750.00          0.4728
       91800.00          0.4735
       91850.00          0.4823
       91900.00          0.4833
       91950.00          0.4950
       92000.00          0.4892
       92050.00          0.4787
       92100.00          0.4839
       92150.00          0.4855
       92200.00          0.4742
       92250.00          0.4734
       92300.00          0.4710
       92350.00          0.4880
       92400.00          0.4846
       92450.00          0.4848
       92500.00          0.4792
       92550.00          0.4856
       92600.00          0.4743
       92650.00          0.4795
       92700.00          0.4796
       92750.00          0.4668
       92800.00          0.4677
       92850.00          0.4821
       92900.00          0.4666
       92950.00          0.4890
       93000.00          0.4915
       93050.00          0.4892
       93100.00          0.4829
       93150.00          0.4801
       93200.00          0.4864
       93250.00          0.4807
       93300.00          0.4867
       93350.00          0.4820
       93400.00          0.4796
       93450.00          0.4783
       93500.00          0.4846
       93550.00          0.4826
       93600.00          0.4847
       93650.00          0.4842
       93700.00          0.4725
       93750.00          0.4756
       93800.00          0.4736
       93850.00          0.4678
       93900.00          0.4825
       93950.00          0.4872
       94000.00          0.4737
       94050.00          0.4777
       94100.00          0.4796
       94150.00          0.4748
       94200.00          0.4815
       94250.00          0.4891
       94300.00          0.4922
       94350.00          0.4866
       94400.00          0.4856
       94450.00          0.4798
       94500.00          0.4831
       94550.00          0.4788
       94600.00          0.4802
       94650.00          0.4799
       94700.00          0.4837
       94750.00          0.4875
       94800.00          0.4778
       94850.00          0.4838
       94900.00          0.4780
       94950.00          0.4839
       95000.00          0.4831
       95050.00          0.4790
       95100.00          0.4749
       95150.00          0.5104
       95200.00          0.5105
       95250.00          0.5008
       95300.00          0.4698
       95350.00          0.4895
       95400.00          0.4716
       95450.00          0.4876
       95500.00          0.4719
       95550.00          0.4903
       95600.00          0.4818
       95650.00          0.4952
       95700.00          0.4778
       95750.00          0.4708
       95800.00          0.4803
       95850.00          0.4790
       95900.00          0.4921
       95950.00          0.5196
       96000.00          0.5135
       96050.00          0.4998
       96100.00          0.5040
       96150.00          0.4876
       96200.00          0.4755
       96250.00          0.5042
       96300.00          0.5033
       96350.00          0.5237
       96400.00          0.5055
       96450.00          0.4932
       96500.00          0.5116
       96550.00          0.4960
       96600.00          0.5053
       96650.00          0.4913
       96700.00          0.5248
       96750.00          0.4937
       96800.00          0.4918
       96850.00          0.4807
       96900.00          0.4939
       96950.00          0.4712
       97000.00          0.4606
       97050.00          0.4909
       97100.00          0.4767
       97150.00          0.5044
       97200.00          0.5103
       97250.00          0.5068
       97300.00          0.5244
       97350.00          0.4891
       97400.00          0.4784
       97450.00          0.4882
       97500.00          0.4876
       97550.00          0.4755
       97600.00          0.4677
       97650.00          0.4731
       97700.00          0.4838
       97750.00          0.4795
       97800.00          0.4795
       97850.00          0.4791
       97900.00          0.4775
       97950.00          0.4834
       98000.00          0.4851
       98050.00          0.4915
       98100.00          0.4944
       98150.00          0.4756
       98200.00          0.4861
       98250.00          0.4806
       98300.00          0.4884
       98350.00          0.4843
       98400.00          0.4788
       98450.00          0.4892
       98500.00          0.4792
       98550.00          0.4679
       98600.00          0.4809
       98650.00          0.4793
       98700.00          0.4888
       98750.00          0.4874
       98800.00          0.4852
       98850.00          0.4807
       98900.00          0.4890
       98950.00          0.4711
       99000.00          0.4783
       99050.00          0.4969
       99100.00          0.4921
       99150.00          0.4840
       99200.00          0.4861
       99250.00          0.4828
       99300.00          0.4780
       99350.00          0.4795
       99400.00          0.4771
       99450.00          0.4909
       99500.00          0.4852
       99550.00          0.4749
       99600.00          0.4789
       99650.00          0.4833
       99700.00          0.4782
       99750.00          0.4811
       99800.00          0.4792
       99850.00          0.4770
       99900.00          0.4838
       99950.00          0.4714
      100000.00          0.4820
      100050.00          0.4689
      100100.00          0.4786
      100150.00          0.4806
      100200.00          0.4843
      100250.00          0.4837
      100300.00          0.4810
      100350.00          0.4937
      100400.00          0.4842
      100450.00          0.4740
      100500.00          0.4829
      100550.00          0.4746
      100600.00          0.4857
      100650.00          0.4851
      100700.00          0.4777
      100750.00          0.4900
      100800.00          0.4859
      100850.00          0.4821
      100900.00          0.4815
      100950.00          0.4722
      101000.00          0.4861
      101050.00          0.4916
      101100.00          0.4859
      101150.00          0.4895
      101200.00          0.4741
      101250.00          0.4773
      101300.00          0.4776
      101350.00          0.4792
      101400.00          0.4888
      101450.00          0.4786
      101500.00          0.4931
      101550.00          0.4845
      101600.00          0.4778
      101650.00          0.4860
      101700.00          0.4883
      101750.00          0.4617
      101800.00          0.4590
      101850.00          0.4655
      101900.00          0.4731
      101950.00          0.4752
      102000.00          0.4945
      102050.00          0.4823
      102100.00          0.5057
      102150.00          0.5067
      102200.00          0.4876
      102250.00          0.4880
      102300.00          0.4820
      102350.00          0.4863
      102400.00          0.4827
      102450.00          0.4819
      102500.00          0.4816
      102550.00          0.4916
      102600.00          0.4687
      102650.00          0.4736
      102700.00          0.4830
      102750.00          0.4830
      102800.00          0.4883
      102850.00          0.4824
      102900.00          0.4778
      102950.00          0.4826
      103000.00          0.4957
      103050.00          0.4877
      103100.00          0.4897
      103150.00          0.4850
      103200.00          0.4629
      103250.00          0.4717
      103300.00          0.4864
      103350.00          0.4755
      103400.00          0.4807
      103450.00          0.4850
      103500.00          0.4858
      103550.00          0.4725
      103600.00          0.4681
      103650.00          0.4587
      103700.00          0.4639
      103750.00          0.4995
      103800.00          0.4740
      103850.00          0.4901
      103900.00          0.4794
      103950.00          0.4754
      104000.00          0.4976
      104050.00          0.4988
      104100.00          0.4801
      104150.00          0.4983
      104200.00          0.4846
      104250.00          0.5075
      104300.00          0.5133
      104350.00          0.5218
      104400.00          0.5163
      104450.00          0.4835
      104500.00          0.4753
      104550.00          0.4878
      104600.00          0.5074
      104650.00          0.4942
      104700.00          0.4690
      104750.00          0.4802
      104800.00          0.4643
      104850.00          0.4701
      104900.00          0.4694
      104950.00          0.4965
      104950.00          0.4790
      105000.00          0.4771
      105050.00          0.4670
      105100.00          0.4792
      105150.00          0.4882
      105200.00          0.4898
      105250.00          0.4912
      105300.00          0.4872
      105350.00          0.4868
      105400.00          0.4697
      105450.00          0.4712
      105500.00          0.4922
      105550.00          0.4884
      105600.00          0.4912
      105650.00          0.4913
      105700.00          0.4881
      105750.00          0.4824
      105800.00          0.4840
      105850.00          0.4825
      105900.00          0.4807
      105950.00          0.4787
      106000.00          0.4790
      106050.00          0.4972
      106100.00          0.4888
      106150.00          0.4872
      106200.00          0.4990
      106250.00          0.4843
      106300.00          0.4832
      106350.00          0.4930
      106400.00          0.4820
      106450.00          0.4879
      106500.00          0.4910
      106550.00          0.4912
      106600.00          0.4708
      106650.00          0.4812
      106700.00          0.4905
      106750.00          0.4897
      106800.00          0.4874
      106850.00          0.4766
      106900.00          0.4855
      106950.00          0.4829
      107000.00          0.4791
      107050.00          0.4849
      107100.00          0.4912
      107150.00          0.4872
      107200.00          0.4723
      107250.00          0.4861
      107300.00          0.4832
      107350.00          0.4845
      107400.00          0.4929
      107450.00          0.4875
      107500.00          0.4814
      107550.00          0.4625
      107600.00          0.4880
      107650.00          0.4811
      107700.00          0.4743
      107750.00          0.4796
      107800.00          0.4752
      107850.00          0.4714
      107900.00          0.4865
      107950.00          0.4749
      108000.00          0.4780
      108050.00          0.4854
      108100.00          0.4724
      108150.00          0.4818
      108200.00          0.4789
      108250.00          0.4867
      108300.00          0.4788
      108350.00          0.4852
      108400.00          0.4762
      108450.00          0.4819
      108500.00          0.4847
      108550.00          0.4784
      108600.00          0.4850
      108650.00          0.4809
      108700.00          0.4917
      108750.00          0.4778
      108800.00          0.4823
      108850.00          0.4810
      108900.00          0.4775
      108950.00          0.4760
      109000.00          0.4913
      109050.00          0.4888
      109100.00          0.4784
      109150.00          0.4909
      109200.00          0.4733
      109250.00          0.4807
      109300.00          0.4781
      109350.00          0.4775
      109400.00          0.4934
      109450.00          0.4729
      109500.00          0.4777
      109550.00          0.4751
      109600.00          0.4798
      109650.00          0.4851
      109700.00          0.4760
      109750.00          0.4890
      109800.00          0.4850
      109850.00          0.4958
      109900.00          0.4816
      109950.00          0.4932
      110000.00          0.4824
      110050.00          0.4853
      110100.00          0.4811
      110150.00          0.4797
      110200.00          0.4759
      110250.00          0.4824
      110300.00          0.4878
      110350.00          0.4825
      110400.00          0.4859
      110450.00          0.4840
      110500.00          0.4719
      110550.00          0.4771
      110600.00          0.4825
      110650.00          0.4863
      110700.00          0.4800
      110750.00          0.4777
      110800.00          0.4878
      110850.00          0.4805
      110900.00          0.4714
      110950.00          0.4807
      111000.00          0.4886
      111050.00          0.4869
      111100.00          0.4872
      111150.00          0.4769
      111200.00          0.4869
      111250.00          0.4750
      111300.00          0.4884
      111350.00          0.4838
      111400.00          0.4827
      111450.00          0.4910
      111500.00          0.4845
      111550.00          0.4733
      111600.00          0.4737
      111650.00          0.4889
      111700.00          0.4760
      111750.00          0.4738
      111800.00          0.4849
      111850.00          0.4860
      111900.00          0.4741
      111950.00          0.4901
      112000.00          0.4846
      112050.00          0.4794
      112100.00          0.4820
      112150.00          0.4824
      112200.00          0.4807
      112250.00          0.4800
      112300.00          0.4858
      112350.00          0.4911
      112400.00          0.4863
      112450.00          0.4828
      112500.00          0.4731
      112550.00          0.4801
      112600.00          0.4818
      112650.00          0.4919
      112700.00          0.4784
      112750.00          0.4821
      112800.00          0.4845
      112850.00          0.4744
      112900.00          0.4684
      112950.00          0.4863
      113000.00          0.4780
      113050.00          0.4802
      113100.00          0.4871
      113150.00          0.4825
      113200.00          0.4919
      113250.00          0.4764
      113300.00          0.4890
      113350.00          0.4783
      113400.00          0.4746
      113450.00          0.4728
      113500.00          0.4765
      113550.00          0.4924
      113600.00          0.4857
      113650.00          0.4792
      113700.00          0.4741
      113750.00          0.4788
      113800.00          0.4855
      113850.00          0.4863
      113900.00          0.4877
      113950.00          0.4810
      114000.00          0.4913
      114050.00          0.4854
      114100.00          0.4856
      114150.00          0.4865
      114200.00          0.4844
      114250.00          0.4905
      114300.00          0.4766
      114350.00          0.4773
      114400.00          0.4922
      114450.00          0.4738
      114500.00          0.4873
      114550.00          0.4885
      114600.00          0.4858
      114650.00          0.4772
      114700.00          0.4791
      114750.00          0.4836
      114800.00          0.4717
      114850.00          0.4821
      114900.00          0.4830
      114950.00          0.4805
      115000.00          0.4930
      115050.00          0.4817
      115100.00          0.4914
      115150.00          0.4890
      115200.00          0.4851
      115250.00          0.4855
      115300.00          0.4852
      115350.00          0.4708
      115400.00          0.4868
      115450.00          0.4774
      115500.00          0.4770
      115550.00          0.4812
      115600.00          0.4778
      115650.00          0.4718
      115700.00          0.4898
      115750.00          0.4924
      115800.00          0.4822
      115850.00          0.4799
      115900.00          0.4758
      115950.00          0.4847
      116000.00          0.4783
      116050.00          0.4851
      116100.00          0.4799
      116150.00          0.4889
      116200.00          0.4793
      116250.00          0.4913
      116300.00          0.4846
      116350.00          0.4755
      116400.00          0.4797
      116450.00          0.4862
      116500.00          0.4798
      116550.00          0.4830
      116600.00          0.4846
      116650.00          0.4797
      116700.00          0.4866
      116750.00          0.4909
      116800.00          0.4798
      116850.00          0.4821
      116900.00          0.4900
      116950.00          0.4903
      117000.00          0.4758
      117050.00          0.4855
      117100.00          0.4831
      117150.00          0.4846
      117200.00          0.4842
      117250.00          0.4854
      117300.00          0.4805
      117350.00          0.4812
      117400.00          0.4786
      117450.00          0.4905
      117500.00          0.4966
      117550.00          0.4773
      117600.00          0.4799
      117650.00          0.4862
      117700.00          0.4765
      117750.00          0.4844
      117800.00          0.4868
      117850.00          0.4721
      117900.00          0.4816
      117950.00          0.4916
      118000.00          0.4843
      118050.00          0.4760
      118100.00          0.4768
      118150.00          0.4796
      118200.00          0.4746
      118250.00          0.4678
      118300.00          0.4647
      118350.00          0.4761
      118400.00          0.4865
      118450.00          0.4812
      118500.00          0.4773
      118550.00          0.4839
      118600.00          0.4859
      118650.00          0.4791
      118700.00          0.4807
      118750.00          0.4657
      118800.00          0.4662
      118850.00          0.4658
      118900.00          0.4747
      118950.00          0.4869
      119000.00          0.4831
      119050.00          0.4879
      119100.00          0.4811
      119150.00          0.4809
      119200.00          0.4815
      119250.00          0.4761
      119300.00          0.4828
      119350.00          0.4805
      119400.00          0.4833
      119450.00          0.4662
      119500.00          0.4883
      119550.00          0.4823
      119600.00          0.4830
      119650.00          0.4787
      119700.00          0.4902
      119750.00          0.4806
      119800.00          0.4817
      119850.00          0.4840
      119900.00          0.4925
      119950.00          0.4819
      120000.00          0.4898
      120050.00          0.4746
      120100.00          0.4775
      120150.00          0.4861
      120200.00          0.4832
      120250.00          0.4746
      120300.00          0.4774
      120350.00          0.4778
      120400.00          0.4839
      120450.00          0.4747
      120500.00          0.4934
      120550.00          0.4839
      120600.00          0.4840
      120650.00          0.4733
      120700.00          0.4888
      120750.00          0.4861
      120800.00          0.4901
      120850.00          0.4716
      120900.00          0.4823
      120950.00          0.4878
      121000.00          0.4951
      121050.00          0.4860
      121100.00          0.4904
      121150.00          0.5193
      121200.00          0.5024
      121250.00          0.5078
      121300.00          0.4660
      121350.00          0.4588
      121400.00          0.4599
      121450.00          0.4957
      121500.00          0.4861
      121550.00          0.4792
      121600.00          0.4681
      121650.00          0.4616
      121700.00          0.4814
      121750.00          0.4866
      121800.00          0.4865
      121850.00          0.4788
      121900.00          0.4745
      121950.00          0.4804
      122000.00          0.4860
      122050.00          0.4742
      122100.00          0.4805
      122150.00          0.4787
      122200.00          0.4873
      122250.00          0.4705
      122300.00          0.4817
      122350.00          0.4882
      122400.00          0.4801
      122450.00          0.4811
      122500.00          0.4849
      122550.00          0.4811
      122600.00          0.4868
      122650.00          0.4876
      122700.00          0.4881
      122750.00          0.4727
      122800.00          0.4705
      122850.00          0.4882
      122900.00          0.4831
      122950.00          0.4781
      123000.00          0.4793
      123050.00          0.4882
      123100.00          0.4833
      123150.00          0.4889
      123200.00          0.4801
      123250.00          0.4711
      123300.00          0.4641
      123350.00          0.4843
      123400.00          0.4778
      123450.00          0.4783
      123500.00          0.4822
      123550.00          0.4901
      123600.00          0.4805
      123650.00          0.4740
      123700.00          0.4890
      123750.00          0.4805
      123800.00          0.4912
      123850.00          0.4782
      123900.00          0.4755
      123950.00          0.4757
      124000.00          0.4713
      124050.00          0.4751
      124100.00          0.4826
      124150.00          0.4772
      124200.00          0.4821
      124250.00          0.4785
      124300.00          0.4785
      124350.00          0.4858
      124400.00          0.4871
      124450.00          0.4801
      124500.00          0.4936
      124550.00          0.4833
      124600.00          0.4828
      124650.00          0.4759
      124700.00          0.4943
      124750.00          0.4857
      124800.00          0.4864
      124850.00          0.4816
      124900.00          0.4701
      124950.00          0.4746
      124950.00          0.4727
      125000.00          0.4794
      125050.00          0.4825
      125100.00          0.4778
      125150.00          0.4681
      125200.00          0.4704
      125250.00          0.4781
      125300.00          0.4843
      125350.00          0.4863
      125400.00          0.4893
      125450.00          0.4782
      125500.00          0.4869
      125550.00          0.4898
      125600.00          0.4795
      125650.00          0.4793
      125700.00          0.4903
      125750.00          0.4897
      125800.00          0.4813
      125850.00          0.4880
      125900.00          0.4843
      125950.00          0.4762
      126000.00          0.4808
      126050.00          0.4754
      126100.00          0.4799
      126150.00          0.4866
      126200.00          0.4933
      126250.00          0.4913
      126300.00          0.4830
      126350.00          0.4657
      126400.00          0.4861
      126450.00          0.4840
      126500.00          0.4796
      126550.00          0.4878
      126600.00          0.4884
      126650.00          0.4780
      126700.00          0.4770
      126750.00          0.4847
      126800.00          0.4796
      126850.00          0.4823
      126900.00          0.4777
      126950.00          0.4923
      127000.00          0.4785
      127050.00          0.4925
      127100.00          0.4910
      127150.00          0.4895
      127200.00          0.4851
      127250.00          0.4806
      127300.00          0.4814
      127350.00          0.4814
      127400.00          0.4895
      127450.00          0.4744
      127500.00          0.4855
      127550.00          0.4906
      127600.00          0.4904
      127650.00          0.4776
      127700.00          0.4688
      127750.00          0.4857
      127800.00          0.4868
      127850.00          0.4764
      127900.00          0.4863
      127950.00          0.4850
      128000.00          0.4732
      128050.00          0.4849
      128100.00          0.4836
      128150.00          0.4896
      128200.00          0.4803
      128250.00          0.4920
      128300.00          0.4852
      128350.00          0.4736
      128400.00          0.4776
      128450.00          0.4872
      128500.00          0.4805
      128550.00          0.4927
      128600.00          0.4910
      128650.00          0.4818
      128700.00          0.4754
      128750.00          0.4837
      128800.00          0.4806
      128850.00          0.4780
      128900.00          0.4879
      128950.00          0.4797
      129000.00          0.4876
      129050.00          0.4696
      129100.00          0.4723
      129150.00          0.4883
      129200.00          0.4881
      129250.00          0.4817
      129300.00          0.4712
      129350.00          0.4803
      129400.00          0.4748
      129450.00          0.4827
      129500.00          0.4894
      129550.00          0.4902
      129600.00          0.4816
      129650.00          0.4751
      129700.00          0.4937
      129750.00          0.4811
      129800.00          0.4842
      129850.00          0.4841
      129900.00          0.4838
      129950.00          0.4747
      130000.00          0.4812
      130050.00          0.4845
      130100.00          0.4756
      130150.00          0.4826
      130200.00          0.4787
      130250.00          0.4852
      130300.00          0.4781
      130350.00          0.4873
      130400.00          0.4831
      130450.00          0.4797
      130500.00          0.4797
      130550.00          0.4833
      130600.00          0.4912
      130650.00          0.4835
      130700.00          0.4801
      130750.00          0.4883
      130800.00          0.4761
      130850.00          0.4827
      130900.00          0.4874
      130950.00          0.4869
      131000.00          0.4788
      131050.00          0.4842
      131100.00          0.4928
      131150.00          0.4918
      131200.00          0.4847
      131250.00          0.4759
      131300.00          0.4832
      131350.00          0.4855
      131400.00          0.4894
      131450.00          0.4856
      131500.00          0.4671
      131550.00          0.4742
      131600.00          0.4813
      131650.00          0.4816
      131700.00          0.4932
      131750.00          0.4812
      131800.00          0.4854
      131850.00          0.4701
      131900.00          0.4817
      131950.00          0.4850
      132000.00          0.4706
      132050.00          0.4895
      132100.00          0.4919
      132150.00          0.4893
      132200.00          0.4816
      132250.00          0.4843
      132300.00          0.4783
      132350.00          0.4762
      132400.00          0.4759
      132450.00          0.4860
      132500.00          0.4889
      132550.00          0.4859
      132600.00          0.4755
      132650.00          0.4820
      132700.00          0.4830
      132750.00          0.4891
      132800.00          0.4787
      132850.00          0.4871
      132900.00          0.4732
      132950.00          0.4771
      133000.00          0.4737
      133050.00          0.4795
      133100.00          0.4756
      133150.00          0.4791
      133200.00          0.4820
      133250.00          0.4665
      133300.00          0.4628
      133350.00          0.4658
      133400.00          0.4788
      133450.00          0.4926
      133500.00          0.4824
      133550.00          0.4746
      133600.00          0.4859
      133650.00          0.4807
      133700.00          0.4812
      133750.00          0.4903
      133800.00          0.4733
      133850.00          0.4791
      133900.00          0.4835
      133950.00          0.4846
      134000.00          0.4811
      134050.00          0.4882
      134100.00          0.4841
      134150.00          0.4818
      134200.00          0.4817
      134250.00          0.4811
      134300.00          0.4797
      134350.00          0.4749
      134400.00          0.4923
      134450.00          0.4770
      134500.00          0.4772
      134550.00          0.4800
      134600.00          0.4809
      134650.00          0.4785
      134700.00          0.4938
      134750.00          0.4811
      134800.00          0.4772
      134850.00          0.4765
      134900.00          0.4826
      134950.00          0.4879
      135000.00          0.4818
      135050.00          0.4820
      135100.00          0.4891
      135150.00          0.4871
      135200.00          0.4811
      135250.00          0.4703
      135300.00          0.4867
      135350.00          0.4843
      135400.00          0.4863
      135450.00          0.4865
      135500.00          0.4885
      135550.00          0.4787
      135600.00          0.4827
      135650.00          0.4801
      135700.00          0.4831
      135750.00          0.4849
      135800.00          0.4803
      135850.00          0.4832
      135900.00          0.4626
      135950.00          0.4817
      136000.00          0.4951
      136050.00          0.4859
      136100.00          0.4851
      136150.00          0.4749
      136200.00          0.4735
      136250.00          0.4742
      136300.00          0.4793
      136350.00          0.4851
      136400.00          0.4789
      136450.00          0.4897
      136500.00          0.4688
      136550.00          0.4773
      136600.00          0.4866
      136650.00          0.4704
      136700.00          0.4733
      136750.00          0.4770
      136800.00          0.4809
      136850.00          0.4813
      136900.00          0.4762
      136950.00          0.4858
      137000.00          0.4901
      137050.00          0.4802
      137100.00          0.4881
      137150.00          0.4803
      137200.00          0.4851
      137250.00          0.4898
      137300.00          0.4781
      137350.00          0.4767
      137400.00          0.4861
      137450.00          0.4819
      137500.00          0.4801
      137550.00          0.4820
      137600.00          0.4813
      137650.00          0.4846
      137700.00          0.4816
      137750.00          0.4802
      137800.00          0.4825
      137850.00          0.4719
      137900.00          0.4797
      137950.00          0.4746
      138000.00          0.4735
      138050.00          0.4888
      138100.00          0.4885
      138150.00          0.4859
      138200.00          0.4803
      138250.00          0.4807
      138300.00          0.4742
      138350.00          0.4867
      138400.00          0.4751
      138450.00          0.4913
      138500.00          0.4749
      138550.00          0.4868
      138600.00          0.4764
      138650.00          0.4833
      138700.00          0.4839
      138750.00          0.4853
      138800.00          0.4891
      138850.00          0.4786
      138900.00          0.4829
      138950.00          0.4738
      139000.00          0.4887
      139050.00          0.4754
      139100.00          0.4741
      139150.00          0.4895
      139200.00          0.4843
      139250.00          0.4887
      139300.00          0.4812
      139350.00          0.4801
      139400.00          0.4869
      139450.00          0.4795
      139500.00          0.4823
      139550.00          0.4870
      139600.00          0.4833
      139650.00          0.4763
      139700.00          0.4790
      139750.00          0.4805
      139800.00          0.4806
      139850.00          0.4814
      139900.00          0.4888
      139950.00          0.4816
      140000.00          0.4864
      140050.00          0.4750
      140100.00          0.4888
      140150.00          0.4880
      140200.00          0.4802
      140250.00          0.4751
      140300.00          0.4777
      140350.00          0.4737
      140400.00          0.4903
      140450.00          0.4829
      140500.00          0.4843
      140550.00          0.4834
      140600.00          0.4926
      140650.00          0.4661
      140700.00          0.4823
      140750.00          0.4785
      140800.00          0.4906
      140850.00          0.4893
      140900.00          0.4873
      140950.00          0.4856
      141000.00          0.4817
      141050.00          0.4838
      141100.00          0.4969
      141150.00          0.4984
      141200.00          0.4919
      141250.00          0.4877
      141300.00          0.4682
      141350.00          0.4929
      141400.00          0.4845
      141450.00          0.4686
      141500.00          0.4926
      141550.00          0.4805
      141600.00          0.4780
      141650.00          0.4838
      141700.00          0.4873
      141750.00          0.4796
      141800.00          0.4818
      141850.00          0.4798
      141900.00          0.4873
      141950.00          0.4828
      142000.00          0.4826
      142050.00          0.4912
      142100.00          0.4824
      142150.00          0.4813
      142200.00          0.4878
      142250.00          0.4902
      142300.00          0.4774
      142350.00          0.4798
      142400.00          0.4760
      142450.00          0.4832
      142500.00          0.4814
      142550.00          0.4806
      142600.00          0.4852
      142650.00          0.4765
      142700.00          0.4727
      142750.00          0.4826
      142800.00          0.4904
      142850.00          0.4829
      142900.00          0.4867
      142950.00          0.4887
      143000.00          0.4825
      143050.00          0.4814
      143100.00          0.4812
      143150.00          0.4920
      143200.00          0.4691
      143250.00          0.4801
      143300.00          0.4783
      143350.00          0.4851
      143400.00          0.4822
      143450.00          0.4902
      143500.00          0.4740
      143550.00          0.4917
      143600.00          0.4884
      143650.00          0.4766
      143700.00          0.4836
      143750.00          0.4764
      143800.00          0.4880
      143850.00          0.4865
      143900.00          0.4685
      143950.00          0.4789
      144000.00          0.4816
      144050.00          0.4815
      144100.00          0.4839
      144150.00          0.4887
      144200.00          0.4869
      144250.00          0.4835
      144300.00          0.4933
      144350.00          0.4866
      144400.00          0.4879
      144450.00          0.4828
      144500.00          0.4895
      144550.00          0.4834
      144600.00          0.4729
      144650.00          0.4833
      144700.00          0.4775
      144750.00          0.4769
      144800.00          0.4735
      144850.00          0.4785
      144900.00          0.4731
      144950.00          0.4804
      144950.00          0.4791
      145000.00          0.4717
      145050.00          0.4866
      145100.00          0.4790
      145150.00          0.4814
      145200.00          0.4749
      145250.00          0.4915
      145300.00          0.4758
      145350.00          0.4862
      145400.00          0.4712
      145450.00          0.4898
      145500.00          0.4877
      145550.00          0.4736
      145600.00          0.4896
      145650.00          0.4764
      145700.00          0.4582
      145750.00          0.4745
      145800.00          0.4830
      145850.00          0.4815
      145900.00          0.4850
      145950.00          0.4819
      146000.00          0.4787
      146050.00          0.4783
      146100.00          0.4763
      146150.00          0.4825
      146200.00          0.4707
      146250.00          0.4897
      146300.00          0.4852
      146350.00          0.4769
      146400.00          0.4669
      146450.00          0.4854
      146500.00          0.4801
      146550.00          0.4798
      146600.00          0.4835
      146650.00          0.4893
      146700.00          0.4919
      146750.00          0.4829
      146800.00          0.4882
      146850.00          0.4840
      146900.00          0.4858
      146950.00          0.4852
      147000.00          0.4759
      147050.00          0.4815
      147100.00          0.4825
      147150.00          0.4859
      147200.00          0.4810
      147250.00          0.4872
      147300.00          0.4815
      147350.00          0.4887
      147400.00          0.4888
      147450.00          0.4807
      147500.00          0.4836
      147550.00          0.4777
      147600.00          0.4772
      147650.00          0.4810
      147700.00          0.4798
      147750.00          0.4772
      147800.00          0.4803
      147850.00          0.4789
      147900.00          0.4834
      147950.00          0.4795
      148000.00          0.4813
      148050.00          0.4756
      148100.00          0.4824
      148150.00          0.4792
      148200.00          0.4681
      148250.00          0.4822
      148300.00          0.4832
      148350.00          0.4778
      148400.00          0.4844
      148450.00          0.4764
      148500.00          0.4811
      148550.00          0.4752
      148600.00          0.4766
      148650.00          0.4854
      148700.00          0.4879
      148750.00          0.4739
      148800.00          0.4827
      148850.00          0.4723
      148900.00          0.4762
      148950.00          0.4804
      149000.00          0.4864
      149050.00          0.4880
      149100.00          0.4777
      149150.00          0.4772
      149200.00          0.4867
      149250.00          0.4843
      149300.00          0.4817
      149350.00          0.4821
      149400.00          0.4892
      149450.00          0.4807
      149500.00          0.4875
      149550.00          0.5028
      149600.00          0.4924
      149650.00          0.4914
      149700.00          0.4852
      149750.00          0.4825
      149800.00          0.4828
      149850.00          0.4803
      149900.00          0.4778
      149950.00          0.4854
      150000.00          0.4874
      150050.00          0.4886
      150100.00          0.4841
      150150.00          0.4882
      150200.00          0.4796
      150250.00          0.4837
      150300.00          0.4888
      150350.00          0.4873
      150400.00          0.4877
      150450.00          0.4843
      150500.00          0.4768
      150550.00          0.4753
      150600.00          0.4746
      150650.00          0.4796
      150700.00          0.4875
      150750.00          0.4896
      150800.00          0.4792
      150850.00          0.4812
      150900.00          0.4875
      150950.00          0.4836
      151000.00          0.4891
      151050.00          0.4754
      151100.00          0.4796
      151150.00          0.4816
      151200.00          0.4753
      151250.00          0.4842
      151300.00          0.4802
      151350.00          0.4778
      151400.00          0.4798
      151450.00          0.4877
      151500.00          0.4775
      151550.00          0.4866
      151600.00          0.4830
      151650.00          0.4831
      151700.00          0.4719
      151750.00          0.4685
      151800.00          0.4768
      151850.00          0.4758
      151900.00          0.4863
      151950.00          0.4821
      152000.00          0.4797
      152050.00          0.4791
      152100.00          0.4831
      152150.00          0.4826
      152200.00          0.4875
      152250.00          0.4850
      152300.00          0.4871
      152350.00          0.4784
      152400.00          0.4796
      152450.00          0.4850
      152500.00          0.4799
      152550.00          0.4738
      152600.00          0.4812
      152650.00          0.4856
      152700.00          0.4853
      152750.00          0.4863
      152800.00          0.4850
      152850.00          0.4881
      152900.00          0.4826
      152950.00          0.4800
      153000.00          0.4910
      153050.00          0.4812
      153100.00          0.4783
      153150.00          0.4808
      153200.00          0.4788
      153250.00          0.4869
      153300.00          0.4878
      153350.00          0.4889
      153400.00          0.4833
      153450.00          0.4747
      153500.00          0.4852
      153550.00          0.4796
      153600.00          0.4799
      153650.00          0.4838
      153700.00          0.4842
      153750.00          0.4884
      153800.00          0.4760
      153850.00          0.4855
      153900.00          0.4825
      153950.00          0.4887
      154000.00          0.4846
      154050.00          0.4805
      154100.00          0.4822
      154150.00          0.4871
      154200.00          0.4799
      154250.00          0.4779
      154300.00          0.4898
      154350.00          0.4775
      154400.00          0.4810
      154450.00          0.4823
      154500.00          0.4776
      154550.00          0.4705
      154600.00          0.4829
      154650.00          0.4805
      154700.00          0.4884
      154750.00          0.4856
      154800.00          0.4821
      154850.00          0.4803
      154900.00          0.4847
      154950.00          0.4790
      155000.00          0.4858
      155050.00          0.4809
      155100.00          0.4909
      155150.00          0.4874
      155200.00          0.4859
      155250.00          0.4849
      155300.00          0.4871
      155350.00          0.4715
      155400.00          0.4864
      155450.00          0.4900
      155500.00          0.4731
      155550.00          0.4826
      155600.00          0.4930
      155650.00          0.4769
      155700.00          0.4766
      155750.00          0.4784
      155800.00          0.4882
      155850.00          0.4852
      155900.00          0.4795
      155950.00          0.4839
      156000.00          0.4866
      156050.00          0.4855
      156100.00          0.4653
      156150.00          0.4643
      156200.00          0.4800
      156250.00          0.4810
      156300.00          0.4764
      156350.00          0.4744
      156400.00          0.4817
      156450.00          0.4882
      156500.00          0.4818
      156550.00          0.4800
      156600.00          0.4885
      156650.00          0.4729
      156700.00          0.4782
      156750.00          0.4903
      156800.00          0.4758
      156850.00          0.4867
      156900.00          0.4750
      156950.00          0.4871
      157000.00          0.4920
      157050.00          0.4833
      157100.00          0.4883
      157150.00          0.4856
      157200.00          0.4771
      157250.00          0.4759
      157300.00          0.4811
      157350.00          0.4857
      157400.00          0.4838
      157450.00          0.4961
      157500.00          0.4799
      157550.00          0.4847
      157600.00          0.4755
      157650.00          0.4710
      157700.00          0.4816
      157750.00          0.4789
      157800.00          0.4836
      157850.00          0.4811
      157900.00          0.4926
      157950.00          0.4814
      158000.00          0.4811
      158050.00          0.4861
      158100.00          0.4855
      158150.00          0.4837
      158200.00          0.4927
      158250.00          0.4877
      158300.00          0.4762
      158350.00          0.4713
      158400.00          0.4828
      158450.00          0.4832
      158500.00          0.4832
      158550.00          0.4870
      158600.00          0.4665
      158650.00          0.4733
      158700.00          0.4725
      158750.00          0.4776
      158800.00          0.4698
      158850.00          0.4764
      158900.00          0.4795
      158950.00          0.4776
      159000.00          0.4806
      159050.00          0.4930
      159100.00          0.4847
      159150.00          0.4800
      159200.00          0.4869
      159250.00          0.4720
      159300.00          0.4787
      159350.00          0.4820
      159400.00          0.4847
      159450.00          0.4810
      159500.00          0.4783
      159550.00          0.4886
      159600.00          0.4911
      159650.00          0.4955
      159700.00          0.4834
      159750.00          0.4901
      159800.00          0.4744
      159850.00          0.4803
      159900.00          0.4691
      159950.00          0.4907
      160000.00          0.5102
      160050.00          0.5158
      160100.00          0.4931
      160150.00          0.5064
      160200.00          0.5089
      160250.00          0.5168
      160300.00          0.5044
      160350.00          0.4847
      160400.00          0.5035
      160450.00          0.5127
      160500.00          0.4674
      160550.00          0.4563
      160600.00          0.4857
      160650.00          0.4949
      160700.00          0.4934
      160750.00          0.4838
      160800.00          0.4943
      160850.00          0.4971
      160900.00          0.4925
      160950.00          0.4851
      161000.00          0.4638
      161050.00          0.4675
      161100.00          0.4667
      161150.00          0.4865
      161200.00          0.4626
      161250.00          0.5031
      161300.00          0.5016
      161350.00          0.5050
      161400.00          0.5093
      161450.00          0.4997
      161500.00          0.5219
      161550.00          0.4782
      161600.00          0.4921
      161650.00          0.4923
      161700.00          0.5153
      161750.00          0.4867
      161800.00          0.4700
      161850.00          0.4908
      161900.00          0.4984
      161950.00          0.5084
      162000.00          0.5191
      162050.00          0.5217
      162100.00          0.5018
      162150.00          0.5138
      162200.00          0.4874
      162250.00          0.4931
      162300.00          0.5044
      162350.00          0.5059
      162400.00          0.4961
      162450.00          0.5085
      162500.00          0.5130
      162550.00          0.4894
      162600.00          0.4954
      162650.00          0.4977
      162700.00          0.5169
      162750.00          0.5139
      162800.00          0.5085
      162850.00          0.5197
      162900.00          0.5212
      162950.00          0.5045
      163000.00          0.5095
      163050.00          0.5068
      163100.00          0.4852
      163150.00          0.4814
      163200.00          0.4931
      163250.00          0.4826
      163300.00          0.4969
      163350.00          0.4871
      163400.00          0.5157
      163450.00          0.5220
      163500.00          0.5073
      163550.00          0.4742
      163600.00          0.4784
      163650.00          0.5094
      163700.00          0.5014
      163750.00          0.5260
      163800.00          0.5147
      163850.00          0.5146
      163900.00          0.4759
      163950.00          0.4893
      164000.00          0.4895
      164050.00          0.4590
      164100.00          0.4617
      164150.00          0.4703
      164200.00          0.4776
      164250.00          0.4907
      164300.00          0.4916
      164350.00          0.4816
      164400.00          0.4920
      164450.00          0.4965
      164500.00          0.5243
      164550.00          0.5054
      164600.00          0.4858
      164650.00          0.4934
      164700.00          0.4942
      164750.00          0.4956
      164800.00          0.4870
      164850.00          0.4870
      164900.00          0.4880
      164950.00          0.4745
      164950.00          0.4999
      165000.00          0.5061
      165050.00          0.4710
      165100.00          0.4697
      165150.00          0.4803
      165200.00          0.4928
      165250.00          0.4969
      165300.00          0.4932
      165350.00          0.5082
      165400.00          0.4864
      165450.00          0.4664
      165500.00          0.4700
      165550.00          0.4700
      165600.00          0.4683
      165650.00          0.4841
      165700.00          0.4684
      165750.00          0.4632
      165800.00          0.4678
      165850.00          0.4766
      165900.00          0.5081
      165950.00          0.5053
      166000.00          0.5207
      166050.00          0.5094
      166100.00          0.5187
      166150.00          0.4999
      166200.00          0.4794
      166250.00          0.4627
      166300.00          0.4603
      166350.00          0.4663
      166400.00          0.4669
      166450.00          0.4758
      166500.00          0.4802
      166550.00          0.4800
      166600.00          0.4813
      166650.00          0.4814
      166700.00          0.4813
      166750.00          0.4863
      166800.00          0.4786
      166850.00          0.4807
      166900.00          0.4882
      166950.00          0.4786
      167000.00          0.4779
      167050.00          0.4748
      167100.00          0.4828
      167150.00          0.4780
      167200.00          0.4627
      167250.00          0.4793
      167300.00          0.4865
      167350.00          0.4882
      167400.00          0.4824
      167450.00          0.4841
      167500.00          0.4863
      167550.00          0.4809
      167600.00          0.4738
      167650.00          0.4687
      167700.00          0.4773
      167750.00          0.4831
      167800.00          0.4810
      167850.00          0.4776
      167900.00          0.4815
      167950.00          0.4776
      168000.00          0.4867
      168050.00          0.4831
      168100.00          0.4833
      168150.00          0.4837
      168200.00          0.4889
      168250.00          0.4754
      168300.00          0.4750
      168350.00          0.4823
      168400.00          0.4895
      168450.00          0.4893
      168500.00          0.4816
      168550.00          0.4871
      168600.00          0.4830
      168650.00          0.4818
      168700.00          0.4761
      168750.00          0.4806
      168800.00          0.4794
      168850.00          0.4886
      168900.00          0.4797
      168950.00          0.4759
      169000.00          0.4743
      169050.00          0.4759
      169100.00          0.4829
      169150.00          0.4812
      169200.00          0.4890
      169250.00          0.4899
      169300.00          0.4790
      169350.00          0.4867
      169400.00          0.4838
      169450.00          0.4876
      169500.00          0.4865
      169550.00          0.4866
      169600.00          0.4697
      169650.00          0.4858
      169700.00          0.4870
      169750.00          0.4823
      169800.00          0.4806
      169850.00          0.4815
      169900.00          0.4908
      169950.00          0.4783
      170000.00          0.4801
      170050.00          0.4739
      170100.00          0.4807
      170150.00          0.4781
      170200.00          0.4866
      170250.00          0.4842
      170300.00          0.4881
      170350.00          0.4854
      170400.00          0.4773
      170450.00          0.4791
      170500.00          0.4712
      170550.00          0.4788
      170600.00          0.4761
      170650.00          0.4767
      170700.00          0.4739
      170750.00          0.4822
      170800.00          0.4812
      170850.00          0.4850
      170900.00          0.4862
      170950.00          0.4794
      171000.00          0.4774
      171050.00          0.4851
      171100.00          0.4763
      171150.00          0.4822
      171200.00          0.4762
      171250.00          0.4836
      171300.00          0.4807
      171350.00          0.4851
      171400.00          0.4836
      171450.00          0.4836
      171500.00          0.4826
      171550.00          0.4839
      171600.00          0.4887
      171650.00          0.4856
      171700.00          0.4746
      171750.00          0.4790
      171800.00          0.4813
      171850.00          0.4760
      171900.00          0.4743
      171950.00          0.4771
      172000.00          0.4813
      172050.00          0.4740
      172100.00          0.4719
      172150.00          0.4771
      172200.00          0.4795
      172250.00          0.4797
      172300.00          0.4893
      172350.00          0.4832
      172400.00          0.4758
      172450.00          0.4788
      172500.00          0.4811
      172550.00          0.4927
      172600.00          0.4934
      172650.00          0.4842
      172700.00          0.4779
      172750.00          0.4737
      172800.00          0.4813
      172850.00          0.4855
      172900.00          0.4796
      172950.00          0.4833
      173000.00          0.4825
      173050.00          0.4844
      173100.00          0.4787
      173150.00          0.4880
      173200.00          0.4763
      173250.00          0.4830
      173300.00          0.4858
      173350.00          0.4792
      173400.00          0.4722
      173450.00          0.4847
      173500.00          0.4898
      173550.00          0.4736
      173600.00          0.4850
      173650.00          0.4882
      173700.00          0.4877
      173750.00          0.4792
      173800.00          0.4767
      173850.00          0.4681
      173900.00          0.4804
      173950.00          0.4909
      174000.00          0.4735
      174050.00          0.4806
      174100.00          0.4712
      174150.00          0.4746
      174200.00          0.4739
      174250.00          0.4723
      174300.00          0.4839
      174350.00          0.4708
      174400.00          0.4848
      174450.00          0.4910
      174500.00          0.4829
      174550.00          0.4912
      174600.00          0.4743
      174650.00          0.4831
      174700.00          0.4814
      174750.00          0.4816
      174800.00          0.4763
      174850.00          0.4804
      174900.00          0.4774
      174950.00          0.4891
      175000.00          0.4811
      175050.00          0.4803
      175100.00          0.4700
      175150.00          0.4842
      175200.00          0.4762
      175250.00          0.4828
      175300.00          0.4728
      175350.00          0.4834
      175400.00          0.4803
      175450.00          0.4780
      175500.00          0.4952
      175550.00          0.4769
      175600.00          0.4730
      175650.00          0.4726
      175700.00          0.4781
      175750.00          0.4884
      175800.00          0.4780
      175850.00          0.4846
      175900.00          0.4803
      175950.00          0.4831
      176000.00          0.4773
      176050.00          0.4794
      176100.00          0.4710
      176150.00          0.4714
      176200.00          0.4891
      176250.00          0.4895
      176300.00          0.4831
      176350.00          0.4822
      176400.00          0.4921
      176450.00          0.4792
      176500.00          0.4742
      176550.00          0.4748
      176600.00          0.4771
      176650.00          0.4739
      176700.00          0.4835
      176750.00          0.4766
      176800.00          0.4804
      176850.00          0.4831
      176900.00          0.4771
      176950.00          0.4748
      177000.00          0.4845
      177050.00          0.4912
      177100.00          0.4865
      177150.00          0.4762
      177200.00          0.4787
      177250.00          0.4810
      177300.00          0.4826
      177350.00          0.4956
      177400.00          0.4848
      177450.00          0.4878
      177500.00          0.4894
      177550.00          0.4855
      177600.00          0.4923
      177650.00          0.4831
      177700.00          0.4860
      177750.00          0.4856
      177800.00          0.4919
      177850.00          0.4833
      177900.00          0.4906
      177950.00          0.4829
      178000.00          0.4774
      178050.00          0.4867
      178100.00          0.4857
      178150.00          0.4766
      178200.00          0.4812
      178250.00          0.4790
      178300.00          0.4851
      178350.00          0.4811
      178400.00          0.4684
      178450.00          0.4564
      178500.00          0.4675
      178550.00          0.4816
      178600.00          0.4872
      178650.00          0.4699
      178700.00          0.4820
      178750.00          0.4847
      178800.00          0.4830
      178850.00          0.4812
      178900.00          0.4775
      178950.00          0.4750
      179000.00          0.4803
      179050.00          0.4789
      179100.00          0.4841
      179150.00          0.4755
      179200.00          0.4862
      179250.00          0.4844
      179300.00          0.4777
      179350.00          0.4864
      179400.00          0.4869
      179450.00          0.4763
      179500.00          0.4961
      179550.00          0.4824
      179600.00          0.4766
      179650.00          0.4767
      179700.00          0.4754
      179750.00          0.4813
      179800.00          0.4895
      179850.00          0.4926
      179900.00          0.4841
      179950.00          0.4839
      180000.00          0.4920
      180050.00          0.4722
      180100.00          0.4704
      180150.00          0.4746
      180200.00          0.4860
      180250.00          0.4823
      180300.00          0.4869
      180350.00          0.4673
      180400.00          0.4833
      180450.00          0.4742
      180500.00          0.4826
      180550.00          0.4895
      180600.00          0.4812
      180650.00          0.4760
      180700.00          0.4847
      180750.00          0.4837
      180800.00          0.4773
      180850.00          0.4787
      180900.00          0.4807
      180950.00          0.4800
      181000.00          0.4788
      181050.00          0.4844
      181100.00          0.4915
      181150.00          0.4824
      181200.00          0.4819
      181250.00          0.4884
      181300.00          0.4850
      181350.00          0.4819
      181400.00          0.4880
      181450.00          0.4791
      181500.00          0.4917
      181550.00          0.4839
      181600.00          0.4863
      181650.00          0.4739
      181700.00          0.4859
      181750.00          0.4727
      181800.00          0.4792
      181850.00          0.4867
      181900.00          0.4722
      181950.00          0.4927
      182000.00          0.4803
      182050.00          0.4837
      182100.00          0.4761
      182150.00          0.4786
      182200.00          0.4845
      182250.00          0.4890
      182300.00          0.4826
      182350.00          0.4835
      182400.00          0.4752
      182450.00          0.4731
      182500.00          0.4820
      182550.00          0.4852
      182600.00          0.4771
      182650.00          0.4702
      182700.00          0.4746
      182750.00          0.4769
      182800.00          0.4799
      182850.00          0.4783
      182900.00          0.4716
      182950.00          0.4824
      183000.00          0.4817
      183050.00          0.4820
      183100.00          0.4729
      183150.00          0.4778
      183200.00          0.4781
      183250.00          0.4805
      183300.00          0.4792
      183350.00          0.4690
      183400.00          0.4806
      183450.00          0.4830
      183500.00          0.4788
      183550.00          0.4823
      183600.00          0.4740
      183650.00          0.4880
      183700.00          0.4802
      183750.00          0.4810
      183800.00          0.4749
      183850.00          0.4841
      183900.00          0.4805
      183950.00          0.4696
      184000.00          0.4834
      184050.00          0.4773
      184100.00          0.4829
      184150.00          0.4763
      184200.00          0.4874
      184250.00          0.4851
      184300.00          0.4748
      184350.00          0.4724
      184400.00          0.4811
      184450.00          0.4785
      184500.00          0.4881
      184550.00          0.4858
      184600.00          0.4851
      184650.00          0.4877
      184700.00          0.4852
      184750.00          0.4836
      184800.00          0.4911
      184850.00          0.4818
      184900.00          0.4756
      184950.00          0.4879
      184950.00          0.4823
      185000.00          0.4754
      185050.00          0.4902
      185100.00          0.4881
      185150.00          0.4797
      185200.00          0.4809
      185250.00          0.4896
      185300.00          0.4863
      185350.00          0.4780
      185400.00          0.4833
      185450.00          0.4839
      185500.00          0.4858
      185550.00          0.4772
      185600.00          0.4884
      185650.00          0.4823
      185700.00          0.4809
      185750.00          0.4806
      185800.00          0.4810
      185850.00          0.4784
      185900.00          0.4884
      185950.00          0.4822
      186000.00          0.4765
      186050.00          0.4794
      186100.00          0.4725
      186150.00          0.4794
      186200.00          0.4694
      186250.00          0.4780
      186300.00          0.4769
      186350.00          0.4807
      186400.00          0.4850
      186450.00          0.4790
      186500.00          0.4856
      186550.00          0.4786
      186600.00          0.4838
      186650.00          0.4768
      186700.00          0.4759
      186750.00          0.4818
      186800.00          0.4892
      186850.00          0.4806
      186900.00          0.4766
      186950.00          0.4811
      187000.00          0.4776
      187050.00          0.4953
      187100.00          0.4713
      187150.00          0.4774
      187200.00          0.4887
      187250.00          0.4826
      187300.00          0.4790
      187350.00          0.4901
      187400.00          0.4964
      187450.00          0.4855
      187500.00          0.4884
      187550.00          0.4826
      187600.00          0.4766
      187650.00          0.4834
      187700.00          0.4740
      187750.00          0.4830
      187800.00          0.4723
      187850.00          0.4782
      187900.00          0.4848
      187950.00          0.4761
      188000.00          0.4856
      188050.00          0.4787
      188100.00          0.4818
      188150.00          0.4830
      188200.00          0.4845
      188250.00          0.4827
      188300.00          0.4796
      188350.00          0.4691
      188400.00          0.4802
      188450.00          0.4868
      188500.00          0.4706
      188550.00          0.4882
      188600.00          0.4877
      188650.00          0.4752
      188700.00          0.4760
      188750.00          0.4882
      188800.00          0.4788
      188850.00          0.4831
      188900.00          0.4837
      188950.00          0.4737
      189000.00          0.4841
      189050.00          0.4844
      189100.00          0.4719
      189150.00          0.4775
      189200.00          0.4786
      189250.00          0.4804
      189300.00          0.4787
      189350.00          0.4845
      189400.00          0.4871
      189450.00          0.4949
      189500.00          0.4845
      189550.00          0.4828
      189600.00          0.4744
      189650.00          0.4906
      189700.00          0.4735
      189750.00          0.4859
      189800.00          0.4829
      189850.00          0.4848
      189900.00          0.4819
      189950.00          0.4821
      190000.00          0.4858
      190050.00          0.4845
      190100.00          0.4787
      190150.00          0.4776
      190200.00          0.4798
      190250.00          0.4849
      190300.00          0.4814
      190350.00          0.4791
      190400.00          0.4836
      190450.00          0.4795
      190500.00          0.4787
      190550.00          0.4783
      190600.00          0.4886
      190650.00          0.4758
      190700.00          0.4784
      190750.00          0.4690
      190800.00          0.4752
      190850.00          0.4803
      190900.00          0.4838
      190950.00          0.4784
      191000.00          0.4845
      191050.00          0.4759
      191100.00          0.4789
      191150.00          0.4886
      191200.00          0.4901
      191250.00          0.4882
      191300.00          0.4883
      191350.00          0.4787
      191400.00          0.4703
      191450.00          0.4600
      191500.00          0.4881
      191550.00          0.4884
      191600.00          0.4826
      191650.00          0.4650
      191700.00          0.4739
      191750.00          0.4649
      191800.00          0.4771
      191850.00          0.4806
      191900.00          0.4816
      191950.00          0.4778
      192000.00          0.4776
      192050.00          0.4758
      192100.00          0.4896
      192150.00          0.4757
      192200.00          0.4877
      192250.00          0.4879
      192300.00          0.4827
      192350.00          0.4813
      192400.00          0.4786
      192450.00          0.4724
      192500.00          0.4890
      192550.00          0.4809
      192600.00          0.4798
      192650.00          0.4829
      192700.00          0.4822
      192750.00          0.4888
      192800.00          0.4853
      192850.00          0.4860
      192900.00          0.4783
      192950.00          0.4864
      193000.00          0.4873
      193050.00          0.4762
      193100.00          0.4860
      193150.00          0.4796
      193200.00          0.4783
      193250.00          0.4820
      193300.00          0.4790
      193350.00          0.4824
      193400.00          0.4829
      193450.00          0.4822
      193500.00          0.4890
      193550.00          0.4946
      193600.00          0.4776
      193650.00          0.4797
      193700.00          0.4809
      193750.00          0.4861
      193800.00          0.4828
      193850.00          0.4822
      193900.00          0.4825
      193950.00          0.4811
      194000.00          0.4829
      194050.00          0.4826
      194100.00          0.4793
      194150.00          0.4912
      194200.00          0.4861
      194250.00          0.4816
      194300.00          0.4860
      194350.00          0.4779
      194400.00          0.4803
      194450.00          0.4830
      194500.00          0.4891
      194550.00          0.4869
      194600.00          0.4756
      194650.00          0.4813
      194700.00          0.4904
      194750.00          0.4788
      194800.00          0.4809
      194850.00          0.4743
      194900.00          0.4840
      194950.00          0.4790
      195000.00          0.4711
      195050.00          0.4692
      195100.00          0.4793
      195150.00          0.4832
      195200.00          0.4866
      195250.00          0.4770
      195300.00          0.4871
      195350.00          0.4704
      195400.00          0.4765
      195450.00          0.4874
      195500.00          0.4837
      195550.00          0.4857
      195600.00          0.4842
      195650.00          0.4872
      195700.00          0.4783
      195750.00          0.4847
      195800.00          0.4907
      195850.00          0.4732
      195900.00          0.4868
      195950.00          0.4863
      196000.00          0.4904
      196050.00          0.4798
      196100.00          0.4735
      196150.00          0.4904
      196200.00          0.4737
      196250.00          0.4676
      196300.00          0.4811
      196350.00          0.4702
      196400.00          0.4834
      196450.00          0.4801
      196500.00          0.4774
      196550.00          0.4782
      196600.00          0.4882
      196650.00          0.4751
      196700.00          0.4746
      196750.00          0.4820
      196800.00          0.4705
      196850.00          0.4798
      196900.00          0.4883
      196950.00          0.4932
      197000.00          0.4802
      197050.00          0.4752
      197100.00          0.4689
      197150.00          0.4892
      197200.00          0.4824
      197250.00          0.4783
      197300.00          0.4734
      197350.00          0.4751
      197400.00          0.4777
      197450.00          0.4797
      197500.00          0.4784
      197550.00          0.4860
      197600.00          0.4757
      197650.00          0.4842
      197700.00          0.4877
      197750.00          0.4853
      197800.00          0.4730
      197850.00          0.4814
      197900.00          0.4912
      197950.00          0.4794
      198000.00          0.4882
      198050.00          0.4879
      198100.00          0.4807
      198150.00          0.4829
      198200.00          0.4716
      198250.00          0.4744
      198300.00          0.4714
      198350.00          0.4838
      198400.00          0.4781
      198450.00          0.4893
      198500.00          0.4884
      198550.00          0.4867
      198600.00          0.4746
      198650.00          0.4822
      198700.00          0.4734
      198750.00          0.4839
      198800.00          0.4814
      198850.00          0.4908
      198900.00          0.4874
      198950.00          0.4801
      199000.00          0.4788
      199050.00          0.4868
      199100.00          0.4750
      199150.00          0.4794
      199200.00          0.4846
      199250.00          0.4807
      199300.00          0.4758
      199350.00          0.4920
      199400.00          0.4891
      199450.00          0.4907
      199500.00          0.4785
      199550.00          0.4844
      199600.00          0.4753
      199650.00          0.4766
      199700.00          0.4879
      199750.00          0.4866
      199800.00          0.4777
      199850.00          0.4865
      199900.00          0.4820
      199950.00          0.4762
      200000.00          0.4793
      200050.00          0.4770
      200100.00          0.4773
      200150.00          0.4880
      200200.00          0.4863
      200250.00          0.4878
      200300.00          0.4892
      200350.00          0.4806
      200400.00          0.4908
      200450.00          0.4787
      200500.00          0.4847
      200550.00          0.4806
      200600.00          0.4798
      200650.00          0.4793
      200700.00          0.4842
      200750.00          0.4762
      200800.00          0.4855
      200850.00          0.4810
      200900.00          0.4804
      200950.00          0.4716
      201000.00          0.4832
      201050.00          0.4852
      201100.00          0.4836
      201150.00          0.4773
      201200.00          0.4761
      201250.00          0.4755
      201300.00          0.4786
      201350.00          0.4726
      201400.00          0.4757
      201450.00          0.4850
      201500.00          0.4742
      201550.00          0.4733
      201600.00          0.4846
      201650.00          0.4824
      201700.00          0.4810
      201750.00          0.4858
      201800.00          0.4802
      201850.00          0.4796
      201900.00          0.4728
      201950.00          0.4780
      202000.00          0.4850
      202050.00          0.4804
      202100.00          0.4770
      202150.00          0.4804
      202200.00          0.4761
      202250.00          0.4822
      202300.00          0.4813
      202350.00          0.4754
      202400.00          0.4909
      202450.00          0.4865
      202500.00          0.4834
      202550.00          0.4813
      202600.00          0.4790
      202650.00          0.4833
      202700.00          0.4861
      202750.00          0.4817
      202800.00          0.4633
      202850.00          0.4776
      202900.00          0.4795
      202950.00          0.4732
      203000.00          0.4777
      203050.00          0.4776
      203100.00          0.4890
      203150.00          0.4879
      203200.00          0.4730
      203250.00          0.4764
      203300.00          0.4757
      203350.00          0.4847
      203400.00          0.4861
      203450.00          0.4800
      203500.00          0.4857
      203550.00          0.4781
      203600.00          0.4904
      203650.00          0.4814
      203700.00          0.4798
      203750.00          0.4830
      203800.00          0.4761
      203850.00          0.4731
      203900.00          0.4812
      203950.00          0.4813
      204000.00          0.4681
      204050.00          0.4685
      204100.00          0.4710
      204150.00          0.4814
      204200.00          0.4791
      204250.00          0.4850
      204300.00          0.4879
      204350.00          0.4771
      204400.00          0.4756
      204450.00          0.4861
